   1.2480604e-02  -1.3290442e-02   2.2465692e-02   4.4796661e-02   1.2766261e-01   4.0818397e-01  -2.0346157e-01  -5.9985162e-01  -1.6616659e-01   1.3902532e-01   1.4392182e-01  -3.0483171e-01   1.7549959e-02  -5.3177899e-01  -3.8984077e-01  -3.6296430e-01  -3.3269194e-02   1.0233543e-01  -1.2786280e-01   6.4170515e-01   1.1574240e-01
  -2.5602599e-02  -2.5558733e-02  -5.0882712e-03  -5.1666584e-02  -1.4971754e-01  -3.9590121e-02   3.1273166e-02  -1.1176841e-01  -1.9992484e-01   4.4606872e-01   1.0436331e-01   2.1638697e-01   1.9503350e-01   3.5011648e-01  -1.6854631e-01   7.7562153e-02  -4.9329425e-01  -1.3570037e-01   8.5503869e-01   4.2561600e-01  -7.1470890e-01
   2.9032231e-02   4.0865857e-03   2.0178707e-02  -9.2010993e-02   2.9613378e-02   3.8135181e-02  -2.2467762e-01  -2.4221175e-01   1.0391021e-01   2.9514978e-01  -3.5146083e-01  -2.4309676e-01  -1.0150093e-01   4.5610982e-02   8.8436267e-01   3.9623351e-01   1.4800006e-01  -4.1199298e-02  -5.0806659e-02  -3.1211957e-01   9.8692686e-01
   6.7945475e-03   2.4171572e-02  -3.7573121e-02   6.3751208e-02  -6.6599879e-02   1.8787506e-02  -3.3893292e-02   2.0485570e-01  -8.3219723e-02   5.2079172e-01  -2.6458193e-01   5.0160942e-02  -3.7294172e-01  -2.4250501e-01   1.8472408e-01   3.8014927e-01  -8.4466536e-01   1.9353802e+00   4.7837945e-02   7.1683360e-01   8.2558193e-02
   2.4547171e-02  -1.7459861e-02  -1.0239297e-04  -3.7220597e-03  -2.1905848e-02   9.9819774e-02  -1.2788966e-01   1.3843721e-01   6.5124835e-02  -1.4944325e-01   3.5170179e-01   8.5036028e-01  -2.2676623e-02   2.4300019e-03   4.3708161e-03  -1.6379811e-01   1.3976791e+00   9.4367479e-01  -2.2003431e-01  -1.3807608e+00  -1.3316066e-02
   9.4238185e-03  -1.7306470e-02   3.9130080e-02  -8.5329202e-02   2.1190661e-02  -5.5829871e-03  -1.2242965e-02   7.1624128e-02  -1.0511142e-01  -9.0030274e-02   4.1991851e-01  -2.4795001e-01   8.5151775e-01   9.0863131e-02   2.6023726e-01   2.9874659e-02  -1.2806656e-01   2.1773783e-01   1.3647364e+00  -6.5252405e-01   7.6615882e-01
   3.0388581e-02  -9.4910029e-02   1.3797723e-01  -8.4856020e-02   2.1370613e-02   1.4096611e-01  -3.0852829e-02   6.6175753e-02  -1.3962450e-02   1.8517054e-01  -9.6382198e-01  -2.5405986e-01   5.5639504e-02   1.5304471e-01  -2.6781024e-01  -7.4769679e-01   6.1170111e-01   3.1797465e-01   4.4890269e-02  -6.1138756e-01  -1.3023452e+00
   1.3027763e-02  -2.2678332e-03  -2.6416395e-02   5.9963083e-02  -1.3555414e-01  -1.3308349e-01  -6.8547880e-02  -5.7349594e-02   1.6903532e-01   2.6403306e-01   3.1125975e-01  -4.3988446e-01  -4.6072233e-01   2.1157383e-02  -3.8475820e-01   5.2815777e-02  -2.3054006e-01  -1.2863588e-01   2.0529418e-01  -7.9936262e-01  -2.2785731e-01
   2.7996887e-02  -3.9129509e-02   1.1244646e-01   4.2798327e-02   2.4662671e-02  -5.8954240e-01  -1.9054381e-01   4.2070976e-03   2.4249402e-01   7.7084991e-01  -9.8949113e-02   1.7717295e-01   4.6992646e-01  -8.5295530e-01  -3.5063571e-02   6.0173572e-01   6.4158795e-01  -2.9650519e-01   3.4619024e-01   3.1004231e-01  -1.3036862e-01
   5.2885319e-03   3.4640623e-02  -2.0417650e-02  -1.5758019e-02  -1.6829570e-01   2.7192294e-02  -8.3743012e-02   1.4605815e-01  -5.0903755e-01  -8.4068158e-02  -2.3298525e-01   3.7136541e-01  -2.2569941e-02  -7.1494956e-01   5.3881301e-01  -2.8471511e-01  -2.5379690e-01  -2.4630743e-01   6.0357834e-01   2.2925169e-01  -6.2945444e-01
   9.3974398e-03  -1.1282947e-02   1.6011715e-02   4.2278086e-02   1.0162622e-01   3.2776078e-01  -1.5565227e-01  -4.7128811e-01  -1.2857089e-01   1.0684671e-01   8.5986348e-02  -2.1018631e-01  -1.4708736e-02  -4.4325957e-01  -3.1652298e-01  -2.8875331e-01  -3.7566996e-02   1.5949511e-01  -4.8313585e-02   5.1190178e-01   3.2965911e-02
  -2.0352266e-02  -2.2299017e-02  -5.1033452e-03  -4.4226609e-02  -1.2360745e-01  -2.0858040e-02   1.0116275e-02  -1.0090080e-01  -1.6460280e-01   3.6072254e-01   6.0731246e-02   1.8881781e-01   1.6142010e-01   2.8261645e-01  -6.5593008e-02   8.6154744e-02  -3.7166744e-01  -1.1009068e-01   6.4787375e-01   3.1877589e-01  -5.3314572e-01
   2.4789478e-02   4.4482761e-03   1.4346902e-02  -7.5186070e-02   2.0412424e-02   2.2635604e-02  -1.8680603e-01  -1.9524359e-01   7.3528601e-02   2.9023330e-01  -2.7962936e-01  -1.8753792e-01  -8.4450052e-02   9.4168395e-02   7.3462331e-01   4.0044160e-01   8.3978297e-02  -1.6031290e-02  -1.9222085e-02  -1.4169061e-01   7.8723186e-01
   5.0782646e-03   1.2623856e-02  -9.9644458e-03   2.4962184e-02  -7.9296262e-03  -6.1094062e-04  -3.0695023e-02   6.3907936e-02  -8.5091672e-03   2.4270292e-01  -1.4211387e-01  -8.5984241e-02  -1.6940275e-01  -1.1641216e-01   1.8202126e-01   2.1266919e-01  -3.3085379e-01   6.4538923e-01   5.8609825e-02   2.9120472e-01   2.0850049e-01
   1.2413230e-02  -9.7975085e-03   4.2393559e-03  -4.7430387e-03  -2.0257856e-02   5.1001280e-02  -5.5503757e-02   1.5133714e-02   2.6841868e-02  -9.0725653e-02   1.5344614e-01   3.7595096e-01   1.2385282e-02  -8.6852571e-04  -1.8273287e-02  -1.0227538e-01   5.9782814e-01   2.9882308e-01  -7.5873356e-02  -5.9061723e-01  -3.8483958e-02
   4.6492127e-03  -5.2886999e-03   1.0987319e-02  -3.2770991e-02  -1.6756602e-02  -1.1544111e-02   4.1305368e-03   5.3486566e-02  -4.1194316e-02  -1.6944427e-02   1.1596325e-01  -3.4201349e-02   2.8207170e-01   3.5051047e-02   1.1219141e-01   3.2782761e-02  -1.0559353e-01   2.4845188e-01   4.5167103e-01  -2.8100802e-01   2.8973138e-01
   1.6811597e-02  -6.4909491e-02   1.1262250e-01  -5.3414393e-02  -1.6158834e-03   1.1524388e-01   2.9115416e-02   3.0018082e-02   7.3259725e-04   7.8410190e-02  -5.9181979e-01  -1.3625383e-01   1.7991695e-02   9.1445826e-02  -2.1691605e-01  -4.1070771e-01   2.7375461e-01   1.3746715e-01   8.8087461e-02  -3.6361775e-01  -6.3210383e-01
   4.4570226e-03  -1.0243617e-03  -8.1871207e-03   2.2407228e-02  -5.3211391e-02  -5.1735113e-02  -1.3544035e-02  -2.3856483e-02   7.1305934e-02   9.2676134e-02   1.1437709e-01  -1.6610601e-01  -1.6792057e-01   5.4229266e-02  -1.2489175e-01   4.8263429e-02  -1.0261371e-01  -4.0617846e-02   8.9528007e-02  -2.7070089e-01   4.9424092e-03
   2.1709740e-02  -3.3708099e-02   8.8798571e-02   3.2262232e-02   1.4852707e-02  -4.5085032e-01  -1.4105928e-01  -5.0882501e-03   1.9353357e-01   5.8498123e-01  -6.7840447e-02   1.5114454e-01   3.9835116e-01  -6.7910202e-01  -4.8350413e-02   5.0369654e-01   4.2945373e-01  -1.7302113e-01   2.1079068e-01   2.4423054e-01  -7.9899433e-02
   6.0234867e-04   1.3816870e-02  -7.7343776e-03  -5.1000854e-03  -6.8198501e-02   1.6960087e-02  -3.1135015e-02   4.3834275e-02  -2.1110468e-01  -5.2861145e-02  -8.8425301e-02   1.4228867e-01  -6.7789485e-03  -3.0174892e-01   2.1109730e-01  -8.4041568e-02  -9.9242830e-02  -9.6823826e-02   2.2363210e-01   9.3292192e-02  -2.3813608e-01
   6.5176420e-03  -9.5344444e-03   1.0697999e-02   3.8962131e-02   8.0066839e-02   2.5668786e-01  -1.1163959e-01  -3.6239158e-01  -9.8065560e-02   7.7898970e-02   3.8786801e-02  -1.4669001e-01  -2.7127364e-02  -3.6669050e-01  -2.5309033e-01  -2.1512711e-01  -5.6818678e-02   1.9631980e-01   3.3201985e-02   4.1258661e-01  -2.7002718e-02
  -1.5492359e-02  -1.8728609e-02  -6.0782585e-03  -3.5395193e-02  -1.0283813e-01  -4.3809775e-03  -8.4665545e-03  -8.5799847e-02  -1.3607326e-01   2.9645989e-01   1.9743325e-02   1.7483813e-01   1.2906768e-01   2.2076084e-01   2.5721532e-02   1.0869198e-01  -2.8388419e-01  -2.4843208e-02   4.7534210e-01   2.3785598e-01  -3.7829230e-01
   2.0723265e-02   3.9330268e-03   1.0044636e-02  -6.1768257e-02   1.4085812e-02   8.7659281e-03  -1.5185168e-01  -1.6061227e-01   5.0652785e-02   2.7045229e-01  -2.1128263e-01  -1.4570080e-01  -5.9033259e-02   1.3802943e-01   6.0336979e-01   3.9315802e-01   4.1736860e-02  -4.9638825e-02   1.3991299e-02  -2.0502664e-02   6.1464063e-01
   5.8803339e-03   6.0350073e-03   6.3080436e-03   5.3483652e-05   3.2701025e-02  -9.6148814e-03  -3.8186256e-02  -2.1665793e-02   4.5748503e-02   6.0470143e-02  -6.5099640e-02  -1.4719397e-01  -4.8876782e-02  -3.4622569e-02   1.8786814e-01   8.1575939e-02   4.4184736e-02  -1.3602873e-01   1.8670589e-03  -1.5832251e-02   2.8312039e-01
   4.3132993e-03  -3.8184229e-03   6.4022557e-03  -3.7042255e-04  -1.4930380e-02   2.9023732e-02  -6.8833897e-03  -7.2874531e-02  -6.1226802e-05  -4.7987237e-02   7.7539030e-03   5.8678965e-02   8.5702165e-03  -1.8089397e-02  -3.9574886e-02  -4.3191598e-02   4.6635851e-02  -1.0480558e-01  -3.0045537e-02  -3.6971059e-02  -5.1130339e-02
   1.1229957e-03   1.8658346e-03  -6.2567845e-03   1.3520796e-04  -3.6772004e-02  -2.0071921e-02   2.0182758e-02   4.9417620e-02   2.6778737e-03   2.1734005e-02  -5.9707050e-02   1.0017399e-01  -6.2941384e-02   1.1216820e-02   1.9740786e-02   4.5047821e-02  -6.9413992e-02   2.3386546e-01  -1.1136787e-01  -5.4468581e-02  -1.6771956e-03
   6.5704978e-03  -3.9777782e-02   8.5640747e-02  -2.8435507e-02  -1.5376094e-02   9.2356827e-02   6.3201577e-02   6.8080984e-03   7.8082293e-03   7.7337173e-04  -2.8628619e-01  -5.2739588e-02  -5.5481110e-03   5.5705770e-02  -1.4515990e-01  -1.7273123e-01   5.4015565e-02   2.3690209e-02   1.1137628e-01  -1.7577482e-01  -1.5526088e-01
  -9.6500162e-04  -1.4357573e-04   2.5606418e-03  -1.1373795e-03   1.5724520e-03   1.1679280e-04   1.7904981e-02  -3.1443099e-03   6.3828419e-03  -1.5588181e-02  -1.2662889e-02   6.6057352e-03   1.8145221e-02   6.5675170e-02   3.6127149e-02   3.9524532e-02  -2.0116260e-02   2.9466196e-03   1.5832235e-02   5.6073452e-02   1.2533041e-01
   1.6496821e-02  -2.9137884e-02   6.7410462e-02   2.2599399e-02   7.7684207e-03  -3.2682805e-01  -9.8358090e-02  -1.1135763e-02   1.4650032e-01   4.2008380e-01  -4.1892256e-02   1.2585473e-01   3.3098748e-01  -5.1762391e-01  -5.5723160e-02   4.0694383e-01   2.5531540e-01  -6.5690736e-02   9.0556550e-02   1.9096951e-01  -5.4287526e-02
  -2.0552805e-03   1.0021247e-04   2.3020462e-05   1.6251209e-03  -2.5055065e-03   8.9541273e-03   1.7574807e-03  -1.8654702e-02  -1.5243749e-02  -2.5836831e-02   2.7645788e-03  -3.2202606e-03   7.1043479e-03  -3.2462775e-02  -7.6702755e-04   3.7676766e-02   3.5905820e-03   5.6847863e-04  -1.8814896e-02   2.3915086e-03   1.3538773e-02
   3.9979844e-03  -8.0467941e-03   6.3060487e-03   3.5478837e-02   6.2964911e-02   1.9616429e-01  -7.2675005e-02  -2.7212640e-01  -7.3138479e-02   5.3038340e-02   2.5814838e-03  -1.0412469e-01  -2.7567061e-02  -3.0217066e-01  -2.0049988e-01  -1.4580106e-01  -7.9072872e-02   2.2076756e-01   1.0470807e-01   3.3444076e-01  -6.7787873e-02
  -1.1206949e-02  -1.5232288e-02  -7.2955844e-03  -2.6368981e-02  -8.6009691e-02   9.1725969e-03  -2.3883260e-02  -7.0700837e-02  -1.1256922e-01   2.4716381e-01  -1.5459173e-02   1.6830142e-01   1.0283223e-01   1.6754318e-01   1.0572875e-01   1.4040133e-01  -2.1967815e-01   8.3358021e-02   3.3889146e-01   1.7387502e-01  -2.4585957e-01
   1.7030272e-02   2.9409145e-03   6.6531471e-03  -5.1039126e-02   9.5621391e-03  -2.7979377e-03  -1.2090868e-01  -1.3525017e-01   3.4020109e-02   2.4278603e-01  -1.4995940e-01  -1.1159712e-01  -3.1025504e-02   1.7481021e-01   4.9185732e-01   3.7798538e-01   1.5528453e-02  -1.1095528e-01   4.2786168e-02   5.9721010e-02   4.6630857e-01
   8.3576748e-03   3.3211269e-03   1.3896018e-02  -1.3231717e-02   5.6951830e-02  -1.0668162e-02  -5.0516569e-02  -6.2649787e-02   7.9468660e-02  -4.2931876e-02  -2.2823785e-02  -1.5570306e-01   9.2279213e-03   1.1221698e-02   1.9772861e-01  -7.7660997e-03   2.8577639e-01  -5.1267544e-01  -7.8551844e-02  -2.1499034e-01   3.2101838e-01
  -3.3376096e-04   3.0997502e-04   7.0391268e-03   6.6169710e-03  -6.8767883e-03   2.7125127e-02   2.1359237e-02  -1.2955057e-01  -1.7653175e-02  -2.0126360e-02  -8.5485952e-02  -1.2484518e-01  -1.3141339e-02  -4.2393829e-02  -5.6393082e-02   7.1112339e-03  -2.8785078e-01  -3.1012154e-01  -3.8374858e-02   3.0746911e-01  -5.1965042e-02
  -1.3447502e-03   5.2220095e-03  -1.4610322e-02   1.6301290e-02  -4.2779773e-02  -3.0705487e-02   3.4252298e-02   5.3823322e-02   2.8917814e-02   3.3372542e-02  -1.3687127e-01   1.6630044e-01  -2.2534786e-01   1.2491536e-02  -2.4738938e-02   5.8771060e-02  -3.1328993e-02   1.7939218e-01  -3.8999953e-01   5.3993707e-02  -1.4447960e-01
  -4.6605545e-04  -1.9996663e-02   6.0085928e-02  -9.9886722e-03  -2.2088960e-02   7.1082266e-02   7.5404330e-02  -6.2105985e-03   8.4035260e-03  -4.7559635e-02  -5.7434567e-02   2.6728724e-04  -1.7243532e-02   3.4707893e-02  -6.8960470e-02  -1.8335516e-02  -6.7915672e-02  -3.6685106e-02   1.1746297e-01  -4.0303929e-02   1.4867094e-01
  -3.7886860e-03   3.5318282e-04   7.4801715e-03  -1.3360422e-02   3.2481763e-02   2.7879460e-02   3.1566055e-02   7.4405426e-03  -2.9721455e-02  -7.1235826e-02  -8.1040858e-02   9.6514349e-02   1.1548231e-01   6.2967484e-02   1.1641999e-01   2.8793151e-02   2.4924381e-02   1.7399814e-02  -2.5205997e-02   2.2017131e-01   1.6222495e-01
   1.2318064e-02  -2.5496450e-02   4.8722766e-02   1.3849107e-02   2.8402136e-03  -2.1776350e-01  -6.2065384e-02  -1.4802011e-02   1.0193147e-01   2.7648538e-01  -2.3382100e-02   1.0176655e-01   2.6763640e-01  -3.7133516e-01  -5.9540647e-02   3.1341160e-01   1.1537465e-01   2.4472315e-02  -1.4708270e-02   1.5022098e-01  -4.8412473e-02
  -3.1848842e-03  -7.6185912e-03   3.9375753e-03   5.1207300e-03   3.4099913e-02   3.2153780e-03   1.8894759e-02  -4.9371274e-02   9.3739529e-02  -5.1652163e-03   5.0151280e-02  -7.9897834e-02   1.8395317e-02   1.1509197e-01  -1.1631559e-01   9.7314662e-02   6.2690242e-02   5.6544637e-02  -1.4641684e-01  -4.8733476e-02   1.5066409e-01
   1.9336826e-03  -6.8341980e-03   2.7087238e-03   3.2159722e-02   5.0139641e-02   1.4657550e-01  -3.9472302e-02  -1.9916196e-01  -5.2507863e-02   3.2545108e-02  -2.2314027e-02  -7.4551602e-02  -2.1538105e-02  -2.4889467e-01  -1.5880486e-01  -8.4020249e-02  -9.5527379e-02   2.3737117e-01   1.5932526e-01   2.6940741e-01  -9.2424223e-02
  -7.5972055e-03  -1.2077260e-02  -8.2853907e-03  -1.8086359e-02  -7.1928691e-02   1.9431655e-02  -3.6002239e-02  -5.8704519e-02  -9.2400900e-02   2.0806253e-01  -4.3107779e-02   1.6492257e-01   8.5203483e-02   1.2482117e-01   1.7505831e-01   1.7627943e-01  -1.6985567e-01   1.8704811e-01   2.3569466e-01   1.1961713e-01  -1.3279635e-01
   1.3849112e-02   1.7881663e-03   3.6965111e-03  -4.2383648e-02   5.8975625e-03  -1.1618989e-02  -9.4690337e-02  -1.1656218e-01   2.2280673e-02   2.1291495e-01  -9.8057522e-02  -8.0608497e-02  -4.4872695e-03   2.0288374e-01   4.0049931e-01   3.5852618e-01   3.9358860e-04  -1.7553429e-01   6.4087092e-02   1.0716031e-01   3.3948299e-01
   1.1656515e-02   3.3781344e-03   1.5453388e-02  -1.7533224e-02   6.7522057e-02  -6.4701424e-03  -6.2828942e-02  -7.1113530e-02   9.4721651e-02  -8.6633424e-02  -4.8085903e-03  -1.3357696e-01   2.4292044e-02   3.0639859e-02   2.0818667e-01  -5.4613054e-02   4.0845328e-01  -5.9718882e-01  -1.5113428e-01  -3.2260705e-01   3.3632055e-01
  -2.2356982e-03   2.6067805e-03   6.7551650e-03   1.3904387e-02   2.8823892e-03   3.8624625e-02   3.3288469e-02  -1.6046484e-01  -2.7891711e-02  -5.8459778e-03  -1.3092120e-01  -2.0229240e-01  -3.6680024e-02  -6.7969732e-02  -6.6758104e-02   4.4005363e-02  -4.4535611e-01  -3.6647798e-01  -6.6108243e-02   4.7755809e-01  -4.2596638e-02
  -2.9174928e-03   5.9087673e-03  -1.6395278e-02   1.9391198e-02  -3.9161588e-02  -4.2395574e-02   4.5147249e-02   6.2430617e-02   4.0545943e-02   2.5821062e-02  -1.4567166e-01   1.7958750e-01  -2.5279517e-01   3.1092996e-02  -3.1303135e-02   6.8070872e-02   1.8978621e-04   9.7528834e-02  -4.5776826e-01   7.5003794e-02  -1.7885661e-01
  -4.6449506e-03  -5.5847908e-03   3.8623836e-02   2.3556130e-03  -2.4235066e-02   5.0708413e-02   7.1231089e-02  -1.2226768e-02   4.3231937e-03  -6.9546441e-02   9.3495701e-02   2.8617258e-02  -1.9686172e-02   1.9421719e-02  -2.4266829e-03   7.1665183e-02  -1.1763785e-01  -6.1145497e-02   1.1014607e-01   5.2464883e-02   3.1229352e-01
  -4.6208342e-03   5.0131653e-04   8.2507537e-03  -1.7086426e-02   4.4191477e-02   3.7302301e-02   3.3087216e-02   1.0565115e-02  -4.2615815e-02  -8.6601423e-02  -1.0400317e-01   1.2392234e-01   1.4505508e-01   5.3113705e-02   1.3575999e-01   1.7796868e-02   4.1098894e-02   1.4582000e-02  -4.2729674e-02   2.6351142e-01   1.4329260e-01
   9.0871803e-03  -2.2765941e-02   3.3010912e-02   6.1166955e-03  -5.1264104e-04  -1.2362352e-01  -3.1503241e-02  -1.6919219e-02   6.0466592e-02   1.5364617e-01  -1.2744174e-02   7.9633290e-02   2.0801918e-01  -2.4211561e-01  -6.1560502e-02   2.2539080e-01   4.9415727e-03   9.6445584e-02  -1.0510881e-01   1.2174807e-01  -5.5620742e-02
  -3.2642210e-03  -1.0631597e-02   5.0569334e-03   6.1522879e-03   4.7834317e-02  -4.0303533e-04   2.4425840e-02  -5.6731158e-02   1.3416751e-01   8.2116801e-03   6.4629224e-02  -1.0396099e-01   2.6257970e-02   1.6720560e-01  -1.5764059e-01   1.1147468e-01   8.7319264e-02   8.1351386e-02  -1.8571636e-01  -6.7945929e-02   2.0001401e-01
   3.5986115e-04  -5.9095784e-03  -1.4555633e-04   2.9082391e-02   4.1252191e-02   1.0755235e-01  -1.2260634e-02  -1.4197226e-01  -3.5157303e-02   1.6257526e-02  -3.5908719e-02  -5.2401416e-02  -1.2569846e-02  -2.0544325e-01  -1.2728871e-01  -3.2414400e-02  -1.0076377e-01   2.4755949e-01   1.9433906e-01   2.1120978e-01  -1.0349241e-01
  -4.6818478e-03  -9.4138117e-03  -8.8155968e-03  -1.1193167e-02  -5.9672803e-02   2.6341658e-02  -4.5071833e-02  -5.1676463e-02  -7.4160453e-02   1.7584593e-01  -6.2711878e-02   1.6229535e-01   7.6591221e-02   9.3248594e-02   2.3455773e-01   2.1155422e-01  -1.2693165e-01   2.6854264e-01   1.5994938e-01   6.9995528e-02  -3.7259539e-02
   1.1257476e-02   7.0084317e-04   8.4826608e-04  -3.5308746e-02   2.3414353e-03  -1.7519844e-02  -7.3553133e-02  -1.0252365e-01   1.4153675e-02   1.8509068e-01  -5.6865207e-02  -4.9591999e-02   1.8134578e-02   2.2142388e-01   3.2889787e-01   3.3809431e-01  -7.5358076e-03  -2.2613974e-01   7.7110239e-02   1.2938835e-01   2.3159254e-01
   1.5016116e-02   5.1678105e-03   1.3398243e-02  -1.5611991e-02   6.7749174e-02   2.5365082e-04  -7.1674539e-02  -5.9022295e-02   9.5234638e-02  -8.9477865e-02  -1.8875368e-03  -1.0031392e-01   1.3069767e-02   3.2953545e-02   2.1691041e-01  -6.2666247e-02   4.3406708e-01  -4.9893271e-01  -1.9738433e-01  -3.5825531e-01   3.4080397e-01
  -2.1431514e-03   3.2594092e-03   6.0259346e-03   1.9789803e-02   1.3301348e-02   5.7450963e-02   3.3181397e-02  -1.7195719e-01  -3.2487858e-02  -3.2123329e-03  -1.3664020e-01  -2.0266558e-01  -5.1611967e-02  -9.0541985e-02  -6.9895946e-02   6.4725571e-02  -4.6929199e-01  -3.2308574e-01  -8.9248923e-02   5.1265102e-01  -2.5584700e-02
  -3.7380705e-03   5.0044759e-03  -1.3978626e-02   1.3403768e-02  -3.0237577e-02  -5.3794690e-02   5.2214997e-02   7.2295503e-02   4.0901966e-02   6.8085065e-03  -1.1389521e-01   1.5735331e-01  -1.9337829e-01   5.9257549e-02  -1.1253001e-02   6.9443222e-02   2.0001596e-02   4.7046652e-03  -3.8821373e-01   3.9588241e-02  -1.4450341e-01
  -6.5109128e-03   3.9299131e-03   2.2972511e-02   9.4938221e-03  -2.4164563e-02   3.1238853e-02   5.7022714e-02  -1.4388765e-02  -2.2371002e-03  -7.0895745e-02   1.7478826e-01   3.9434833e-02  -1.5927805e-02   4.1469507e-03   4.5085122e-02   1.1715984e-01  -1.2218101e-01  -6.7647223e-02   9.3806021e-02   1.1251281e-01   3.7474453e-01
  -4.0738317e-03   3.7794484e-04   6.4460271e-03  -1.5047285e-02   4.1855912e-02   3.4035412e-02   2.7542941e-02   8.6878105e-03  -3.8710913e-02  -7.4530093e-02  -9.5414186e-02   1.0916744e-01   1.2845713e-01   4.2018789e-02   1.1387006e-01   7.8365830e-03   3.6983592e-02   3.1252042e-03  -4.4947042e-02   2.2705419e-01   9.3249828e-02
   6.6795634e-03  -2.0838461e-02   2.0310463e-02  -4.4506811e-04  -2.8014682e-03  -4.4051086e-02  -5.8422601e-03  -1.8196553e-02   2.2755554e-02   5.0315057e-02  -8.7043156e-03   6.0298611e-02   1.5181514e-01  -1.3079354e-01  -6.2597208e-02   1.4498304e-01  -8.0833570e-02   1.4979941e-01  -1.8068614e-01   1.0487446e-01  -6.8898705e-02
  -2.7169433e-03  -1.0287046e-02   4.3315547e-03   5.4767569e-03   4.5196210e-02  -2.2015464e-03   2.2339209e-02  -4.8867589e-02   1.2552868e-01   1.4428600e-02   5.7212537e-02  -9.1678269e-02   2.9999070e-02   1.5160976e-01  -1.4725901e-01   9.5453195e-02   8.7173397e-02   8.4245543e-02  -1.6436878e-01  -6.4392251e-02   1.8791654e-01
  -7.4081406e-04  -5.2718299e-03  -2.2590069e-03   2.6140035e-02   3.5823491e-02   7.8096640e-02   9.1308700e-03  -9.8903740e-02  -2.0336164e-02   3.7530511e-03  -3.8793604e-02  -3.4291910e-02  -2.6990340e-03  -1.7008942e-01  -1.0464497e-01   7.1214527e-03  -9.2639764e-02   2.5045762e-01   2.1008804e-01   1.5565186e-01  -1.0327464e-01
  -2.4076892e-03  -7.2872403e-03  -8.8578055e-03  -6.0380614e-03  -4.8615626e-02   3.0158377e-02  -5.1600251e-02  -5.0292907e-02  -5.6861194e-02   1.4855835e-01  -7.4810374e-02   1.5966081e-01   7.5789965e-02   7.2381987e-02   2.8520755e-01   2.4212351e-01  -8.5555973e-02   3.1936913e-01   1.0431109e-01   2.2089267e-02   4.1637600e-02
   9.2755084e-03  -1.8354970e-04  -2.0760322e-03  -2.9448785e-02  -1.6269066e-03  -2.0580175e-02  -5.7537818e-02  -9.1701175e-02   8.5448459e-03   1.6215216e-01  -2.6676893e-02  -1.6827363e-02   3.5788719e-02   2.3035899e-01   2.7591594e-01   3.1945602e-01  -1.0889305e-02  -2.5263376e-01   8.2613079e-02   1.3302955e-01   1.4026775e-01
   1.7852476e-02   7.7843769e-03   9.7430547e-03  -1.0091590e-02   6.1193391e-02   6.9897640e-03  -7.5195252e-02  -3.7034350e-02   8.5734937e-02  -6.8051151e-02  -6.9220537e-03  -7.1019965e-02  -1.1127366e-02   2.6215067e-02   2.2244990e-01  -3.9314914e-02   3.8910991e-01  -3.1388985e-01  -2.1091752e-01  -3.4237260e-01   3.4280495e-01
  -7.7323702e-04   2.5851050e-03   5.1534573e-03   2.3255507e-02   2.3354070e-02   7.8543455e-02   2.5126331e-02  -1.7035088e-01  -3.2846097e-02  -9.4693500e-03  -1.1288420e-01  -1.5365419e-01  -5.3083195e-02  -1.0757481e-01  -6.6181281e-02   6.8422704e-02  -4.0285046e-01  -2.2374098e-01  -9.4524382e-02   4.5334712e-01  -4.3079844e-03
  -3.9385172e-03   3.4416946e-03  -9.5197949e-03   2.2618808e-03  -1.9816752e-02  -6.3549264e-02   5.5361319e-02   8.1650974e-02   3.3361002e-02  -1.6662476e-02  -6.4860410e-02   1.1648097e-01  -9.0893437e-02   9.0020635e-02   2.4106093e-02   6.1878601e-02   2.5962170e-02  -8.2045076e-02  -2.4782368e-01  -2.3869167e-02  -7.6792254e-02
  -6.7383538e-03   9.4282313e-03   1.3594833e-02   1.2656140e-02  -2.3711024e-02   1.3359515e-02   3.8996859e-02  -1.5323096e-02  -9.0649287e-03  -5.9034518e-02   2.0246702e-01   4.0029640e-02  -9.3196007e-03  -1.3118688e-02   7.0179813e-02   1.3584541e-01  -1.0591669e-01  -7.1039114e-02   7.2777549e-02   1.4855593e-01   3.7509303e-01
  -2.7187620e-03   8.5253823e-05   3.4224904e-03  -9.6931707e-03   3.0602960e-02   2.3241284e-02   1.9095290e-02   3.9133596e-03  -2.4428107e-02  -4.7115392e-02  -6.8383828e-02   7.0847468e-02   8.5788593e-02   3.4026217e-02   6.8904869e-02  -2.0193025e-04   2.0546938e-02  -1.1061728e-02  -3.8639184e-02   1.4755795e-01   3.2497862e-02
   4.9487232e-03  -1.9541365e-02   1.0401296e-02  -5.6699254e-03  -4.4077209e-03   2.1587808e-02   1.5717603e-02  -1.9150559e-02  -1.0633230e-02  -3.5212239e-02  -8.8073827e-03   4.4463081e-02   9.8743910e-02  -3.7209632e-02  -6.2457458e-02   7.3661070e-02  -1.4626155e-01   1.8515166e-01  -2.4146626e-01   9.8314521e-02  -8.2050227e-02
  -1.8897868e-03  -7.8712352e-03   2.5698740e-03   3.7830398e-03   3.2392389e-02  -2.5785902e-03   1.6161318e-02  -3.2990292e-02   8.6627959e-02   1.4457203e-02   3.7962530e-02  -5.8090558e-02   2.9300558e-02   9.4936930e-02  -1.0617770e-01   6.2459360e-02   7.1565760e-02   7.3116910e-02  -1.0851815e-01  -4.7269535e-02   1.3840510e-01
  -1.4257808e-03  -4.8966272e-03  -3.6164152e-03   2.3124589e-02   3.3263523e-02   5.6755598e-02   2.5172243e-02  -6.8214355e-02  -7.5346893e-03  -5.4654687e-03  -3.2249016e-02  -1.8639891e-02   7.0161357e-03  -1.4106878e-01  -8.9190413e-02   3.3511628e-02  -7.1880244e-02   2.4395680e-01   2.0882383e-01   1.0067333e-01  -9.3910945e-02
  -6.6854767e-04  -5.6577327e-03  -8.5358513e-03  -2.6967036e-03  -3.8414207e-02   3.1414809e-02  -5.6218146e-02  -5.4213363e-02  -3.9999792e-02   1.2531571e-01  -8.0630525e-02   1.5748564e-01   8.0535511e-02   6.0913936e-02   3.2805416e-01   2.6491538e-01  -4.2684261e-02   3.3879140e-01   6.1286298e-02  -2.5110797e-02   1.0421244e-01
   7.8741676e-03  -8.0702934e-04  -5.1373820e-03  -2.4558477e-02  -6.2888746e-03  -2.1108250e-02  -4.6419265e-02  -8.3205473e-02   4.6197320e-03   1.4565817e-01  -6.9628931e-03   1.8170801e-02   4.8520689e-02   2.3025709e-01   2.3979144e-01   3.0463605e-01  -1.1080565e-02  -2.5123531e-01   8.2187239e-02   1.2356859e-01   6.3320736e-02
   1.9809186e-02   1.0500154e-02   5.9978782e-03  -3.2335566e-03   5.1247261e-02   1.1666445e-02  -7.3051194e-02  -1.3621727e-02   7.1220720e-02  -3.5393343e-02  -1.5073849e-02  -5.5348455e-02  -3.8670205e-02   1.6549594e-02   2.2396755e-01   5.5812275e-03   3.0157901e-01  -1.1760343e-01  -1.9519661e-01  -2.9417575e-01   3.4692481e-01
   1.2501662e-03   9.7999111e-04   4.2639737e-03   2.3955878e-02   3.2084454e-02   9.8096878e-02   1.2723324e-02  -1.6131522e-01  -3.0070967e-02  -2.1146627e-02  -7.0728007e-02  -7.9535564e-02  -4.1091489e-02  -1.1818670e-01  -5.6988810e-02   5.6111132e-02  -2.8564609e-01  -1.0335523e-01  -7.8115763e-02   3.3836019e-01   1.7331818e-02
  -3.6500413e-03   1.9400135e-03  -4.7699152e-03  -1.0543787e-02  -1.0867823e-02  -7.0555968e-02   5.5006243e-02   8.9655353e-02   2.1089094e-02  -3.8838573e-02  -1.6089465e-02   7.1439546e-02   1.8771369e-02   1.1778968e-01   6.4578281e-02   4.6695216e-02   1.8397127e-02  -1.4809005e-01  -9.0724225e-02  -9.2035049e-02  -3.8395330e-03
  -6.0285080e-03   1.2028122e-02   9.7143968e-03   1.3203696e-02  -2.3947898e-02  -1.8314298e-03   2.2240665e-02  -1.6768636e-02  -1.4326988e-02  -4.1672745e-02   1.9665815e-01   3.6747061e-02  -3.0793666e-03  -3.1229867e-02   7.5146979e-02   1.4113365e-01  -8.7132167e-02  -8.0566509e-02   5.0735186e-02   1.6712399e-01   3.4635603e-01
  -1.0467455e-03  -2.6692648e-04   2.4076851e-04  -3.0573741e-03   1.5089731e-02   9.2948895e-03   1.0797635e-02  -2.0730829e-03  -5.5344997e-03  -1.4669007e-02  -3.4142894e-02   2.4454643e-02   3.3980871e-02   3.1677523e-02   1.6252837e-02  -5.8604411e-03  -1.3443794e-03  -2.4247980e-02  -2.8896681e-02   5.5115352e-02  -2.3765500e-02
   3.7469671e-03  -1.8675350e-02   2.8532444e-03  -9.4189136e-03  -5.5568726e-03   7.4117243e-02   3.3783745e-02  -2.0073175e-02  -3.9289014e-02  -1.0479200e-01  -1.0191683e-02   3.2471991e-02   4.8671644e-02   3.9557671e-02  -6.0149526e-02   1.2030990e-02  -1.9462195e-01   2.0434057e-01  -2.8751371e-01   1.0014279e-01  -9.0591916e-02
  -1.0403686e-03  -4.5095897e-03   4.1233991e-04   1.6485062e-03   1.4868158e-02  -1.9654784e-03   8.7302650e-03  -1.4907805e-02   3.4047660e-02   9.8203680e-03   1.5164331e-02  -1.6001620e-02   2.4354234e-02   2.0582244e-02  -5.2333325e-02   2.3133168e-02   4.8721705e-02   5.4325161e-02  -4.0598669e-02  -2.4783750e-02   7.1826557e-02
  -1.7776995e-03  -4.7323310e-03  -4.2166717e-03   1.9810455e-02   3.2908888e-02   4.1823063e-02   3.6530258e-02  -4.8094224e-02   3.5569279e-03  -1.1819986e-02  -1.8204171e-02  -5.1525304e-03   1.6034860e-02  -1.1677931e-01  -7.9086607e-02   4.6545317e-02  -4.1440766e-02   2.2583700e-01   1.9369484e-01   4.6155686e-02  -7.7537575e-02
   6.7084296e-04  -4.4251332e-03  -8.0652434e-03  -1.0201461e-03  -2.8966264e-02   3.0860437e-02  -5.9548975e-02  -6.2344015e-02  -2.3540347e-02   1.0592331e-01  -8.1724761e-02   1.5693060e-01   8.8070155e-02   5.6973896e-02   3.6416273e-01   2.7812385e-01   2.5238387e-03   3.3173307e-01   2.4410748e-02  -7.1168367e-02   1.5064446e-01
   6.9870495e-03  -1.1762661e-03  -8.2997125e-03  -2.0494825e-02  -1.1702666e-02  -1.9589109e-02  -3.9758064e-02  -7.6591871e-02   1.8294281e-03   1.3609669e-01   3.4351124e-03   5.4935707e-02   5.7137267e-02   2.2217135e-01   2.1828194e-01   2.9481272e-01  -8.4904324e-03  -2.2330814e-01   7.7672253e-02   1.0529714e-01  -1.2882973e-03
   2.0767541e-02   1.2793221e-02   3.1424318e-03   3.2266739e-03   4.0815737e-02   1.2858108e-02  -6.6120687e-02   5.4007883e-03   5.6268113e-02  -5.1049312e-04  -2.3630259e-02  -5.7275578e-02  -6.3399396e-02   7.9373507e-03   2.2104268e-01   6.1185410e-02   1.9780818e-01   3.8416020e-02  -1.6025463e-01  -2.3013012e-01   3.5439548e-01
   3.4334476e-03  -1.1351096e-03   3.3428950e-03   2.2126866e-02   3.8665623e-02   1.1364336e-01  -1.0956009e-03  -1.4943932e-01  -2.5019542e-02  -3.4430841e-02  -2.0864702e-02   2.2522065e-04  -1.9264994e-02  -1.2284180e-01  -4.4422895e-02   3.0498447e-02  -1.5117932e-01   1.3563054e-02  -4.3423869e-02   2.0180292e-01   3.5337507e-02
  -3.0100290e-03   9.7159511e-04  -9.4767550e-04  -2.2221764e-02  -5.3361917e-03  -7.4152216e-02   5.1978217e-02   9.6100964e-02   6.8634775e-03  -5.5583790e-02   2.1172725e-02   3.2916482e-02   1.0980556e-01   1.3868675e-01   1.0192660e-01   2.7073561e-02  -4.9376029e-04  -1.8350592e-01   4.4381426e-02  -1.4814970e-01   5.5186505e-02
  -4.9984959e-03   1.2869095e-02   9.6355969e-03   1.2405139e-02  -2.5138941e-02  -1.3246621e-02   9.9142883e-03  -1.9418746e-02  -1.6891690e-02  -2.5323329e-02   1.7708998e-01   3.4033300e-02   2.7308589e-04  -4.7162837e-02   6.6382580e-02   1.4126707e-01  -7.6074733e-02  -9.9009700e-02   3.0256452e-02   1.7246350e-01   3.1151195e-01
   5.5770677e-04  -5.7700278e-04  -2.3725997e-03   3.3182032e-03  -8.3460380e-04  -4.4043283e-03   4.5474705e-03  -8.0070756e-03   1.3331024e-02   1.4972631e-02  -1.2869347e-03  -1.8465153e-02  -1.4279636e-02   3.5696916e-02  -3.2238398e-02  -9.1160821e-03  -2.3275305e-02  -3.4341717e-02  -1.9075853e-02  -2.8315532e-02  -6.5869356e-02
   2.9448045e-03  -1.8054938e-02  -2.8808612e-03  -1.1617829e-02  -6.3303095e-03   1.1444785e-01   4.8669578e-02  -2.1046342e-02  -6.3003909e-02  -1.6015918e-01  -1.0396265e-02   2.4177218e-02   1.7049207e-03   1.0086641e-01  -5.4287265e-02  -4.0166579e-02  -2.2799005e-01   2.1027663e-01  -3.1896939e-01   1.0791317e-01  -9.2173989e-02
  -3.3610292e-04  -1.0952260e-03  -1.6759378e-03  -4.8624860e-04  -3.0172213e-03  -7.6373805e-04   2.0638926e-03   1.2419333e-03  -1.8938986e-02   2.3004758e-03  -5.1729459e-03   2.4680609e-02   1.5881752e-02  -5.2825682e-02   4.6455855e-04  -1.4634033e-02   2.5249788e-02   3.2734269e-02   2.2224706e-02  -3.3994825e-03   4.0046471e-03
  -1.8894121e-03  -4.7015352e-03  -4.0976162e-03   1.6026261e-02   3.4065001e-02   3.1542729e-02   4.3975906e-02  -3.6681478e-02   1.3096093e-02  -1.5574579e-02   9.2361173e-04   5.7108768e-03   2.3983093e-02  -9.5896276e-02  -7.2544019e-02   4.6880922e-02  -5.7380574e-03   1.9473848e-01   1.6796969e-01  -6.4872337e-03  -5.6387908e-02
   1.7502871e-03  -3.4562367e-03  -7.6917258e-03  -6.9979163e-04  -2.0348208e-02   2.9373852e-02  -6.2109162e-02  -7.3145855e-02  -7.8310866e-03   9.0481345e-02  -7.9652335e-02   1.5929784e-01   9.5650918e-02   5.8438750e-02   3.9457313e-01   2.8128737e-01   4.9060866e-02   3.0642985e-01  -1.0942937e-02  -1.1476894e-01   1.8137306e-01
   6.5239389e-03  -1.3440593e-03  -1.1460510e-02  -1.7190920e-02  -1.7740706e-02  -1.6615931e-02  -3.6949084e-02  -7.1728123e-02  -1.1025048e-04   1.3312981e-01   6.1043852e-03   9.2377316e-02   6.2875731e-02   2.0747440e-01   2.0882538e-01   2.9031244e-01  -2.7786255e-03  -1.7388254e-01   7.0734544e-02   8.1382157e-02  -5.5475040e-02
   2.0817348e-02   1.4357500e-02   1.6562423e-03   8.1662305e-03   3.2096105e-02   9.9347209e-03  -5.6047304e-02   1.6928589e-02   4.4466470e-02   3.1364676e-02  -3.1484798e-02  -7.5677278e-02  -8.2102201e-02   2.3861401e-03   2.1360198e-01   1.1721662e-01   9.9708022e-02   1.2684774e-01  -1.1896661e-01  -1.6308506e-01   3.6388576e-01
   5.4269298e-03  -3.3652913e-03   2.2949917e-03   1.8434829e-02   4.2465728e-02   1.2398014e-01  -1.4131664e-02  -1.3803220e-01  -1.8381634e-02  -4.5704161e-02   2.7396015e-02   7.1624299e-02   6.6453697e-03  -1.2290123e-01  -3.0962374e-02  -4.3183805e-03  -2.5261124e-02   1.1259146e-01   1.6844977e-03   7.1147194e-02   4.6129903e-02
  -2.1641593e-03   7.6005999e-04   1.2976348e-03  -3.0839115e-02  -4.1072896e-03  -7.4220230e-02   4.7360483e-02   1.0113344e-01  -7.0301145e-03  -6.4545045e-02   4.1650439e-02   7.1900010e-03   1.6712936e-01   1.5066465e-01   1.3039011e-01   7.3236201e-03  -2.7218685e-02  -1.8439560e-01   1.3492129e-01  -1.8256841e-01   9.0385021e-02
  -4.0918568e-03   1.2909248e-02   1.1266816e-02   1.1245248e-02  -2.6877942e-02  -2.0245209e-02   2.8850144e-03  -2.3005716e-02  -1.6490898e-02  -1.4152164e-02   1.5895752e-01   3.3949491e-02  -5.9426707e-04  -5.7615458e-02   5.2041163e-02   1.3971074e-01  -7.4879330e-02  -1.2348870e-01   1.2694339e-02   1.6713860e-01   2.8225963e-01
   1.8294425e-03  -7.6413889e-04  -4.0215845e-03   8.3992534e-03  -1.4333215e-02  -1.5502927e-02   1.1744703e-03  -1.3003209e-02   2.8910654e-02   3.6756847e-02   2.4554328e-02  -5.0595500e-02  -5.0971338e-02   4.5186086e-02  -6.8581079e-02  -1.0352659e-02  -4.1462963e-02  -4.0408692e-02  -1.0947604e-02  -8.9310016e-02  -8.9412881e-02
   2.4440142e-03  -1.7540859e-02  -7.3511999e-03  -1.2282161e-02  -6.7083661e-03   1.4348552e-01   6.0384280e-02  -2.1999784e-02  -8.1776638e-02  -2.0274450e-01  -7.9806077e-03   1.8908837e-02  -4.1765307e-02   1.4817170e-01  -4.3563544e-02  -8.3846080e-02  -2.4740570e-01   2.0652802e-01  -3.3606232e-01   1.1888616e-01  -8.6475633e-02
   1.3723520e-04   1.7494596e-03  -3.3963380e-03  -2.3243321e-03  -1.8153466e-02   7.0316361e-04  -2.6695002e-03   1.3039501e-02  -6.2937234e-02  -6.3243580e-03  -1.9469329e-02   5.7219052e-02   5.0501949e-03  -1.1223446e-01   4.3011952e-02  -4.5615150e-02   5.8314884e-03   1.1869525e-02   6.8829573e-02   1.2573835e-02  -5.4026650e-02
  -1.8507647e-03  -4.7079603e-03  -3.3492756e-03   1.1705034e-02   3.6048823e-02   2.4289397e-02   4.8308576e-02  -3.2085861e-02   2.1133189e-02  -1.6833081e-02   2.2465728e-02   1.3223876e-02   3.0445358e-02  -7.7406082e-02  -6.7989893e-02   3.6007620e-02   3.0151902e-02   1.5081785e-01   1.3455732e-01  -5.4864780e-02  -3.2834327e-02
   2.6929560e-03  -2.6120107e-03  -7.6363217e-03  -1.3397621e-03  -1.2744978e-02   2.7855351e-02  -6.4251709e-02  -8.4941250e-02   6.5289046e-03   7.9056510e-02  -7.5752254e-02   1.6554443e-01   1.0095123e-01   6.3204163e-02   4.2024601e-01   2.7520095e-01   9.4628073e-02   2.7214497e-01  -4.7210538e-02  -1.5428164e-01   1.9740239e-01
   6.3840438e-03  -1.3890123e-03  -1.4482013e-02  -1.4625465e-02  -2.4141345e-02  -1.2812614e-02  -3.7264870e-02  -6.8652575e-02  -1.2771440e-03   1.3583620e-01   2.8737457e-03   1.2911020e-01   6.7106981e-02   1.8770231e-01   2.0871118e-01   2.9070325e-01   6.7266083e-03  -1.1010385e-01   6.2639485e-02   5.4022304e-02  -1.0103350e-01
   2.0198211e-02   1.5093288e-02   1.5929374e-03   1.1078352e-02   2.6467222e-02   3.1190379e-03  -4.4736649e-02   2.0261098e-02   3.8043478e-02   5.7960521e-02  -3.8451385e-02  -1.0556875e-01  -9.3809475e-02   3.8453476e-04   2.0193468e-01   1.6527971e-01   2.2798436e-02   1.4170916e-01  -8.3538515e-02  -1.0202625e-01   3.7251381e-01
   7.0182010e-03  -5.3829605e-03   1.0136630e-03   1.3790494e-02   4.3115025e-02   1.2897144e-01  -2.4891789e-02  -1.2912669e-01  -1.0765365e-02  -5.2115515e-02   6.6845642e-02   1.2607166e-01   3.0331918e-02  -1.2012962e-01  -1.9069955e-02  -4.3291543e-02   7.4594768e-02   1.8765436e-01   4.7678247e-02  -3.3980991e-02   4.7079877e-02
  -1.2625289e-03   1.3086874e-03   1.8401031e-03  -3.5369642e-02  -7.0987717e-03  -7.1197266e-02   4.2311380e-02   1.0502021e-01  -1.8830187e-02  -6.5099440e-02   4.5091413e-02  -3.7605642e-03   1.8567575e-01   1.5342172e-01   1.4684983e-01  -8.0302492e-03  -5.7523451e-02  -1.5313593e-01   1.7305664e-01  -1.9235802e-01   1.0015856e-01
  -3.5335063e-03   1.2785155e-02   1.2694505e-02   1.0308711e-02  -2.8365658e-02  -2.2934326e-02  -9.4766576e-05  -2.6593008e-02  -1.3672322e-02  -9.4448983e-03   1.5025494e-01   3.6254743e-02  -5.5968335e-03  -6.0465680e-02   3.9600721e-02   1.3654024e-01  -7.9298786e-02  -1.4753932e-01  -1.6304702e-03   1.5299824e-01   2.6048822e-01
   2.6219915e-03  -7.7689317e-04  -4.6004766e-03   1.1626547e-02  -2.3650578e-02  -2.2658654e-02   6.3394226e-04  -1.6493123e-02   3.9362885e-02   4.8350668e-02   4.0631666e-02  -6.8622091e-02  -7.2531428e-02   5.7999779e-02  -8.8555308e-02  -1.0275261e-02  -5.3763025e-02  -4.2299676e-02  -5.0112881e-03  -1.2236465e-01  -9.4488741e-02
   2.1813350e-03  -1.7056737e-02  -1.1007068e-02  -1.1523633e-02  -6.6302115e-03   1.6207726e-01   6.8718391e-02  -2.2796558e-02  -9.5774142e-02  -2.3361900e-01  -2.7944304e-03   1.5564211e-02  -8.1093469e-02   1.8276044e-01  -2.7162325e-02  -1.2024232e-01  -2.5331531e-01   1.9675848e-01  -3.3910380e-01   1.3029245e-01  -7.4668133e-02
   3.6028717e-04   3.6763581e-03  -4.5956778e-03  -3.7031389e-03  -2.8688926e-02   2.2144081e-03  -5.0818408e-03   1.9629122e-02  -9.2497998e-02  -1.4490904e-02  -2.6408256e-02   7.7956759e-02  -6.6855257e-03  -1.5025481e-01   7.0601653e-02  -6.6966505e-02  -6.8554869e-03  -5.9043526e-03   9.4071530e-02   2.1070469e-02  -9.5781282e-02
  -1.7387900e-03  -4.6474731e-03  -2.1130785e-03   6.9075169e-03   3.8228745e-02   1.8708654e-02   5.0299328e-02  -3.2428576e-02   2.7649058e-02  -1.5610638e-02   4.3765826e-02   1.6763598e-02   3.4901288e-02  -6.0578074e-02  -6.4186624e-02   1.6162932e-02   6.1236669e-02   9.5995560e-02   9.5820787e-02  -9.6222157e-02  -9.3541392e-03
   3.5904303e-03  -1.7718115e-03  -8.0528183e-03  -2.5273360e-03  -6.3807700e-03   2.7112190e-02  -6.6156070e-02  -9.6179634e-02   1.8851884e-02   7.1472281e-02  -7.1025520e-02   1.7593640e-01   1.0232469e-01   6.9383741e-02   4.4199987e-01   2.6167753e-01   1.3630873e-01   2.3724552e-01  -8.4727912e-02  -1.8823511e-01   2.0047492e-01
   6.4672648e-03  -1.3954903e-03  -1.7219647e-02  -1.2792289e-02  -3.0567101e-02  -8.7577286e-03  -3.9894687e-02  -6.7443754e-02  -1.6254306e-03   1.4292430e-01  -4.3526975e-03   1.6373828e-01   7.1093027e-02   1.6442161e-01   2.1525270e-01   2.9497182e-01   2.0623296e-02  -3.9787016e-02   5.4206355e-02   2.4658986e-02  -1.3961364e-01
   1.9225614e-02   1.5077555e-02   2.6844505e-03   1.1998691e-02   2.4483779e-02  -6.5759444e-03  -3.3907956e-02   1.6540897e-02   3.7715117e-02   7.8884407e-02  -4.4609262e-02  -1.3977260e-01  -9.9036486e-02   1.4846703e-03   1.8672333e-01   1.9979912e-01  -2.4710973e-02   9.3304432e-02  -6.2792132e-02  -5.2312988e-02   3.7685766e-01
   8.1103231e-03  -6.9551622e-03  -5.5735445e-04   9.1566782e-03   4.0568182e-02   1.2926890e-01  -3.2499537e-02  -1.2363890e-01  -2.7616141e-03  -5.2047057e-02   9.2784017e-02   1.5979346e-01   4.6327346e-02  -1.1624958e-01  -1.0804991e-02  -8.0974432e-02   1.3891906e-01   2.3849703e-01   8.5815216e-02  -1.0214981e-01   3.6966565e-02
  -4.4978016e-04   2.4505262e-03   9.6509359e-04  -3.5639841e-02  -1.3452842e-02  -6.5996855e-02   3.7883886e-02   1.0799268e-01  -2.7285001e-02  -5.8101891e-02   3.4896651e-02  -1.5234458e-03   1.6861153e-01   1.4815137e-01   1.5066992e-01  -1.5209006e-02  -8.6866038e-02  -9.7611325e-02   1.6269866e-01  -1.8010910e-01   8.9250292e-02
  -3.3388884e-03   1.2764432e-02   1.2649695e-02   9.7615233e-03  -2.8741836e-02  -2.2231401e-02  -1.6959853e-03  -2.8984683e-02  -9.5506133e-03  -9.8096882e-03   1.5124098e-01   3.9026410e-02  -1.3364249e-02  -5.5669477e-02   3.3971419e-02   1.3030142e-01  -8.1696780e-02  -1.6379205e-01  -1.3029627e-02   1.3209845e-01   2.4171141e-01
   2.8958346e-03  -5.9835323e-04  -4.2271908e-03   1.2848392e-02  -2.8062218e-02  -2.5425078e-02   2.2664409e-03  -1.8162329e-02   4.4113227e-02   4.9767351e-02   4.6644439e-02  -7.2602763e-02  -7.9131213e-02   7.1258845e-02  -9.1301664e-02  -9.7669568e-03  -5.9516564e-02  -4.0419833e-02  -9.3525925e-04  -1.2845692e-01  -8.4514673e-02
   2.1225806e-03  -1.6587375e-02  -1.4129899e-02  -9.5373144e-03  -6.0532202e-03   1.7100706e-01   7.3403035e-02  -2.3323652e-02  -1.0526131e-01  -2.5356765e-01   4.1598446e-03   1.2792289e-02  -1.1548445e-01   2.0562355e-01  -5.0083439e-03  -1.5056365e-01  -2.4614718e-01   1.8416493e-01  -3.2848470e-01   1.3955793e-01  -5.8646580e-02
   3.6155850e-04   4.5835070e-03  -5.2376411e-03  -4.5724445e-03  -3.3913168e-02   3.6500562e-03  -5.4130667e-03   2.1404353e-02  -1.0576007e-01  -2.0995163e-02  -2.6518850e-02   8.5926462e-02  -1.7778008e-02  -1.6462184e-01   8.2403283e-02  -7.7826036e-02  -1.1993714e-02  -1.9247194e-02   9.7963737e-02   2.2071498e-02  -1.1869235e-01
  -1.6120912e-03  -4.4212459e-03  -5.6775632e-04   1.8181734e-03   4.0059550e-02   1.3802886e-02   5.0652218e-02  -3.5900878e-02   3.2583471e-02  -1.1955395e-02   6.2426586e-02   1.6036695e-02   3.6781566e-02  -4.4901047e-02  -6.0292896e-02  -9.7952711e-03   8.3220904e-02   3.3788501e-02   5.3631110e-02  -1.2802038e-01   1.1586177e-02
   4.4953786e-03  -8.5188840e-04  -9.0017961e-03  -3.8930115e-03  -1.4576475e-03   2.7753054e-02  -6.7856536e-02  -1.0563426e-01   2.8528973e-02   6.7238132e-02  -6.6117933e-02   1.8989100e-01   9.8921566e-02   7.5423928e-02   4.6044833e-01   2.4319500e-01   1.7125766e-01   2.0785245e-01  -1.2218763e-01  -2.1565621e-01   1.9309705e-01
   6.6825966e-03  -1.4362166e-03  -1.9545078e-02  -1.1673828e-02  -3.6662768e-02  -4.9212078e-03  -4.3982013e-02  -6.8117307e-02  -1.0778450e-03   1.5290420e-01  -1.3738656e-02   1.9506448e-01   7.5812638e-02   1.3912658e-01   2.2594420e-01   3.0175489e-01   3.9079581e-02   2.9770645e-02   4.5897245e-02  -5.7846536e-03  -1.7267701e-01
   1.8217007e-02   1.4516442e-02   4.4615955e-03   1.1369797e-02   2.5961189e-02  -1.7536295e-02  -2.4783710e-02   8.0633494e-03   4.2768460e-02   9.4565687e-02  -4.9840484e-02  -1.7072038e-01  -9.9077344e-02   4.8579145e-03   1.6902871e-01   2.1844168e-01  -4.1711140e-02   2.0248887e-03  -6.0618042e-02  -1.6237228e-02   3.7380731e-01
   8.6919039e-03  -7.9549922e-03  -2.3837880e-03   5.3769726e-03   3.5150299e-02   1.2599941e-01  -3.6578173e-02  -1.2162062e-01   5.0306421e-03  -4.5362864e-02   1.0312027e-01   1.7287803e-01   5.1051821e-02  -1.1261023e-01  -7.4934432e-03  -1.1215121e-01   1.6535918e-01   2.6802714e-01   1.0993547e-01  -1.2967913e-01   1.6262199e-02
   1.4937988e-04   3.9114641e-03  -7.8359264e-04  -3.2190764e-02  -2.1794265e-02  -5.9856087e-02   3.4868858e-02   1.1017135e-01  -3.1620412e-02  -4.5483166e-02   1.6564971e-02   9.8999744e-03   1.2489975e-01   1.3716599e-01   1.4328108e-01  -1.2012558e-02  -1.1085402e-01  -2.9612727e-02   1.1562746e-01  -1.5222095e-01   6.6197697e-02
  -3.3717287e-03   1.2794027e-02   1.0747424e-02   9.4265256e-03  -2.7382443e-02  -1.9657848e-02  -4.9796432e-03  -2.9135838e-02  -5.4204289e-03  -1.2037280e-02   1.5608129e-01   3.9643468e-02  -2.1713358e-02  -4.5359739e-02   3.6573244e-02   1.1974482e-01  -7.4463390e-02  -1.6649338e-01  -2.2008064e-02   1.0721948e-01   2.1927258e-01
   2.6986310e-03  -2.4754823e-04  -3.1627233e-03   1.2232384e-02  -2.7731236e-02  -2.4083518e-02   5.0820045e-03  -1.7901081e-02   4.3578135e-02   4.2778921e-02   4.4078851e-02  -6.5074429e-02  -7.3604282e-02   8.1939280e-02  -7.8697980e-02  -9.7029403e-03  -5.9269451e-02  -3.5610627e-02   1.9582268e-03  -1.1307393e-01  -6.4851740e-02
   2.2497424e-03  -1.6161119e-02  -1.6818259e-02  -6.5732047e-03  -4.9961211e-03   1.7103880e-01   7.4298660e-02  -2.3564383e-02  -1.1051795e-01  -2.6325828e-01   1.1209244e-02   9.2274819e-03  -1.4415225e-01   2.1748541e-01   2.2193150e-02  -1.7573649e-01  -2.2685078e-01   1.7105244e-01  -3.0469679e-01   1.4443699e-01  -4.0273312e-02
   1.9810315e-04   4.5636206e-03  -5.3710245e-03  -4.9652930e-03  -3.4047481e-02   4.9692300e-03  -4.3213420e-03   1.9591897e-02  -1.0378181e-01  -2.5070561e-02  -2.1594914e-02   8.2262813e-02  -2.6796148e-02  -1.5720530e-01   8.0493147e-02  -7.8855409e-02  -1.0300411e-02  -2.7727236e-02   8.4325980e-02   1.7164011e-02  -1.2325475e-01
  -1.5094387e-03  -3.9489023e-03   1.0943168e-03  -3.2819992e-03   4.1111263e-02   8.9597742e-03   4.9980689e-02  -4.0836976e-02   3.5857021e-02  -6.0845317e-03   7.6508411e-02   1.1161100e-02   3.5599984e-02  -3.0010576e-02  -5.5869203e-02  -3.8565469e-02   9.2949313e-02  -3.1202674e-02   9.5665419e-03  -1.4840496e-01   2.7717628e-02
   5.4218169e-03   1.8390943e-04  -1.0442999e-02  -5.1537414e-03   1.8933903e-03   3.0109065e-02  -6.9293632e-02  -1.1251583e-01   3.5179119e-02   6.5603974e-02  -6.1374835e-02   2.0602183e-01   9.0669895e-02   8.0142157e-02   4.7595323e-01   2.2248137e-01   1.9730478e-01   1.8716749e-01  -1.5732411e-01  -2.3625204e-01   1.7842089e-01
   6.9533528e-03  -1.5594639e-03  -2.1362208e-02  -1.1221906e-02  -4.2107450e-02  -1.6233575e-03  -4.8663721e-02  -7.0560108e-02   3.8852702e-04   1.6421886e-01  -2.3635526e-02   2.2220926e-01   8.1859418e-02   1.1316684e-01   2.3858705e-01   3.0958873e-01   6.1583073e-02   9.2623400e-02   3.7975585e-02  -3.6663955e-02  -2.0143847e-01
   1.7430976e-02   1.3685877e-02   6.3781811e-03   9.8667258e-03   3.0129527e-02  -2.7844281e-02  -1.7960950e-02  -2.4205851e-03   5.1357246e-02   1.0546446e-01  -5.3647413e-02  -1.9207973e-01  -9.5438172e-02   9.6998490e-03   1.5019418e-01   2.2200262e-01  -3.2960616e-02  -1.0789877e-01  -7.5713077e-02   6.2548634e-03   3.6116542e-01
   8.8065416e-03  -8.3587179e-03  -4.3304968e-03   3.0468265e-03   2.7570057e-02   1.2046413e-01  -3.7134680e-02  -1.2254067e-01   1.2021223e-02  -3.3375436e-02   9.8194543e-02   1.6816551e-01   4.3403194e-02  -1.0999846e-01  -9.5234715e-03  -1.3249442e-01   1.5729764e-01   2.8004412e-01   1.1739788e-01  -1.1952841e-01  -1.2838601e-02
   4.4648836e-04   5.3773023e-03  -2.7687806e-03  -2.6080174e-02  -3.0518306e-02  -5.4131792e-02   3.3682473e-02   1.1156865e-01  -3.1515680e-02  -2.9770108e-02  -3.8171434e-03   2.5435189e-02   6.6620916e-02   1.2343570e-01   1.2760046e-01   1.6408360e-03  -1.2566456e-01   3.7338561e-02   4.7440228e-02  -1.1697037e-01   4.0664576e-02
  -3.4316743e-03   1.2621811e-02   7.4508893e-03   8.9258856e-03  -2.4088100e-02  -1.6920514e-02  -1.2294079e-02  -2.6458310e-02  -2.3337113e-03  -1.2365798e-02   1.5608669e-01   3.5865057e-02  -2.8337842e-02  -3.3159987e-02   4.5511536e-02   1.0494765e-01  -5.2947573e-02  -1.5321353e-01  -2.8935165e-02   8.1782796e-02   1.8805339e-01
   2.1401074e-03   2.2445744e-04  -1.7296745e-03   1.0168935e-02  -2.3499408e-02  -1.9445975e-02   8.0302055e-03  -1.5780026e-02   3.8834622e-02   3.0221987e-02   3.5459611e-02  -5.0041574e-02  -6.0238896e-02   8.7458307e-02  -5.4592115e-02  -1.0749508e-02  -5.4408440e-02  -2.9039601e-02   4.2955597e-03  -8.4083875e-02  -4.1413644e-02
   2.5455294e-03  -1.5822870e-02  -1.9024331e-02  -2.8998749e-03  -3.5558549e-03   1.6298801e-01   7.1558929e-02  -2.3635531e-02  -1.1176609e-01  -2.6344682e-01   1.6674020e-02   3.7169692e-03  -1.6649361e-01   2.1896157e-01   5.3113875e-02  -1.9630538e-01  -1.9724805e-01   1.5864004e-01  -2.6838738e-01   1.4303921e-01  -2.0844789e-02
  -6.2400765e-05   3.8400346e-03  -5.0983896e-03  -4.9670760e-03  -2.9983505e-02   6.1782327e-03  -2.6478646e-03   1.5799046e-02  -8.9695766e-02  -2.6407576e-02  -1.4050880e-02   6.9529758e-02  -3.2626025e-02  -1.3277754e-01   6.8726956e-02  -7.1777882e-02  -3.5755787e-03  -3.1675729e-02   5.9189201e-02   8.9234588e-03  -1.1210013e-01
  -1.4518059e-03  -3.1797823e-03   2.6944254e-03  -8.0585259e-03   4.1091082e-02   3.9273190e-03   4.8795427e-02  -4.5790964e-02   3.7390952e-02   1.5050895e-03   8.4663490e-02   2.6305088e-03   3.1111483e-02  -1.5626049e-02  -5.0838515e-02  -6.6631534e-02   8.8666889e-02  -9.4027558e-02  -3.4855381e-02  -1.5650751e-01   3.7197631e-02
   6.3516837e-03   1.3222477e-03  -1.2245429e-02  -6.1355890e-03   3.6463572e-03   3.4195611e-02  -7.0370049e-02  -1.1650284e-01   3.8757123e-02   6.5699390e-02  -5.6930181e-02   2.2236448e-01   7.8151137e-02   8.2710250e-02   4.8860987e-01   2.0209807e-01   2.1338485e-01   1.7546095e-01  -1.8766634e-01  -2.5044206e-01   1.6000591e-01
   7.2194348e-03  -1.7820841e-03  -2.2615528e-02  -1.1348091e-02  -4.6655792e-02   9.7802874e-04  -5.3113087e-02  -7.4504527e-02   2.6779683e-03   1.7534498e-01  -3.2677930e-02   2.4463984e-01   8.9407830e-02   8.7700996e-02   2.5137431e-01   3.1713845e-01   8.6835592e-02   1.4462849e-01   3.0669921e-02  -6.7399587e-02  -2.2680691e-01
   1.7028547e-02   1.2868514e-02   7.9261135e-03   8.2112672e-03   3.5830094e-02  -3.5640607e-02  -1.3461395e-02  -1.2306227e-02   6.0961036e-02   1.1168474e-01  -5.5247169e-02  -1.9994354e-01  -8.9455905e-02   1.5424575e-02   1.3166253e-01   2.1381022e-01  -7.1021870e-03  -2.1375290e-01  -1.0247953e-01   1.6818583e-02   3.3796470e-01
   8.5274106e-03  -8.2315048e-03  -6.1817774e-03   2.4395538e-03   1.8886045e-02   1.1388576e-01  -3.4463035e-02  -1.2554629e-01   1.7681714e-02  -1.8530816e-02   8.0369717e-02   1.5015761e-01   2.4855555e-02  -1.0859229e-01  -1.6308853e-02  -1.3918059e-01   1.2223252e-01   2.7770606e-01   1.0914231e-01  -7.9696579e-02  -4.6689053e-02
   4.0357580e-04   6.5570326e-03  -4.4103933e-03  -1.8652792e-02  -3.8074011e-02  -5.0073678e-02   3.4312515e-02   1.1215028e-01  -2.7098924e-02  -1.3608494e-02  -2.0847424e-02   4.0224775e-02   6.4228301e-03   1.1008492e-01   1.0739442e-01   2.3595204e-02  -1.2845215e-01   9.0432889e-02  -2.6025213e-02  -8.2679576e-02   2.1076328e-02
  -3.3456738e-03   1.1951394e-02   3.7939002e-03   7.8485071e-03  -1.9124971e-02  -1.5407847e-02  -2.4403901e-02  -2.0955950e-02  -7.5621715e-04  -7.7950303e-03   1.4351956e-01   2.6715141e-02  -3.1519210e-02  -2.2971255e-02   5.6672520e-02   8.7583048e-02  -1.7179430e-02  -1.2536192e-01  -3.3907538e-02   5.9204641e-02   1.4671532e-01
   1.3645924e-03   7.4454048e-04  -2.4134103e-04   7.1768189e-03  -1.6642589e-02  -1.2650097e-02   1.0222937e-02  -1.2050604e-02   3.1301432e-02   1.5303269e-02   2.3650356e-02  -3.1982841e-02  -4.3635727e-02   8.6176614e-02  -2.3961307e-02  -1.3188974e-02  -4.6761939e-02  -2.2009213e-02   6.4415167e-03  -4.9798388e-02  -1.9461066e-02
   2.9803361e-03  -1.5606351e-02  -2.0626689e-02   1.2307635e-03  -1.8961535e-03   1.4779505e-01   6.5719890e-02  -2.3782838e-02  -1.0912939e-01  -2.5515216e-01   1.9499620e-02  -4.5108096e-03  -1.8223141e-01   2.1077674e-01   8.6092442e-02  -2.1249668e-01  -1.6010298e-01   1.4712282e-01  -2.2044086e-01   1.3377802e-01  -9.0196535e-04
  -3.5599320e-04   2.6999651e-03  -4.5479044e-03  -4.6871046e-03  -2.3012014e-02   7.2962257e-03  -1.1909678e-03   1.1591447e-02  -6.7821906e-02  -2.5123654e-02  -6.3156941e-03   5.1059568e-02  -3.4634613e-02  -9.7737434e-02   5.1625278e-02  -5.8952729e-02   5.8096530e-03  -3.2005178e-02   2.9212539e-02   2.3123334e-04  -8.9133855e-02
  -1.4467427e-03  -2.1005739e-03   4.0918777e-03  -1.2173643e-02   3.9858886e-02  -1.2530439e-03   4.7500564e-02  -4.9605526e-02   3.7131374e-02   9.9853287e-03   8.6204101e-02  -8.7933330e-03   2.3445866e-02  -1.5081706e-03  -4.5411240e-02  -9.0542606e-02   7.0108191e-02  -1.5017375e-01  -7.8004372e-02  -1.5256456e-01   3.8836623e-02
   7.2456617e-03   2.5069535e-03  -1.4212307e-02  -6.7750641e-03   3.8983425e-03   3.9722737e-02  -7.0994961e-02  -1.1770019e-01   3.9602612e-02   6.6702934e-02  -5.2794615e-02   2.3672777e-01   6.2412261e-02   8.2611249e-02   4.9827545e-01   1.8408135e-01   2.1973444e-01   1.7060020e-01  -2.1120512e-01  -2.5926693e-01   1.4149952e-01
   7.4372041e-03  -2.0886209e-03  -2.3291295e-02  -1.1924615e-02  -5.0164961e-02   2.8720443e-03  -5.6586309e-02  -7.9539744e-02   5.5454893e-03   1.8487718e-01  -3.9851292e-02   2.6212936e-01   9.8235203e-02   6.3669716e-02   2.6293184e-01   3.2337323e-01   1.1280998e-01   1.8355037e-01   2.4294366e-02  -9.7317927e-02  -2.4934068e-01
   1.7060485e-02   1.2296061e-02   8.7291567e-03   7.0029851e-03   4.1726846e-02  -3.9492194e-02  -1.0915861e-02  -1.9572009e-02   6.8932942e-02   1.1300786e-01  -5.3857871e-02  -1.9340848e-01  -8.2105884e-02   2.1661796e-02   1.1472626e-01   1.9876940e-01   2.5684464e-02  -2.9817060e-01  -1.3277336e-01   1.8050323e-02   3.0452069e-01
   7.9400776e-03  -7.7050650e-03  -7.6856825e-03   3.4901489e-03   1.0418940e-02   1.0723047e-01  -2.9073105e-02  -1.2967642e-01   2.1620247e-02  -3.8763742e-03   5.3459451e-02   1.2407468e-01  -8.9838494e-04  -1.0803326e-01  -2.6425618e-02  -1.3137839e-01   7.0103734e-02   2.6287265e-01   8.9025333e-02  -2.1348926e-02  -8.0747319e-02
   4.1515160e-05   7.2353409e-03  -5.3001735e-03  -1.1306947e-02  -4.3213293e-02  -4.8607321e-02   3.6330959e-02   1.1192735e-01  -1.8958474e-02   6.3874007e-04  -3.0709891e-02   5.0666473e-02  -4.4612088e-02   9.9898432e-02   8.6670537e-02   4.9803131e-02  -1.1772512e-01   1.1991442e-01  -9.1344543e-02  -5.6236208e-02   1.2884545e-02
  -3.0368107e-03   1.0583898e-02   9.6291633e-04   5.8981678e-03  -1.3125010e-02  -1.5762118e-02  -4.0098153e-02  -1.3177398e-02  -4.0364435e-04   2.9102121e-03   1.1479925e-01   1.2938521e-02  -3.0646419e-02  -1.7647982e-02   6.5314558e-02   7.0390984e-02   2.7980882e-02  -8.7524395e-02  -3.6820505e-02   4.1958005e-02   9.8060235e-02
   5.2500538e-04   1.2313855e-03   1.0500785e-03   3.8186483e-03  -8.6233857e-03  -4.9670910e-03   1.1085973e-02  -7.1561227e-03   2.2472711e-02   9.9989034e-04   1.1299088e-02  -1.4994749e-02  -2.7778041e-02   7.7749902e-02   7.9047677e-03  -1.6820271e-02  -3.8211112e-02  -1.5696345e-02   8.4732357e-03  -1.7455485e-02  -2.7283243e-03
   3.5057471e-03  -1.5513817e-02  -2.1514820e-02   5.6096003e-03  -2.1419720e-04   1.2657070e-01   5.7683297e-02  -2.4339723e-02  -1.0263912e-01  -2.3974421e-01   1.9657565e-02  -1.5772057e-02  -1.9148793e-01   1.9395970e-01   1.1945990e-01  -2.2440069e-01  -1.1889712e-01   1.3593901e-01  -1.6207102e-01   1.1530360e-01   1.9616026e-02
  -6.3177681e-04   1.4336487e-03  -3.8502347e-03  -4.2357281e-03  -1.4576539e-02   8.3246585e-03  -5.2158481e-04   8.1578917e-03  -4.2853043e-02  -2.1693497e-02  -3.4767832e-04   3.0374004e-02  -3.2769318e-02  -5.8950861e-02   3.3412644e-02  -4.3010070e-02   1.5415214e-02  -3.0000992e-02   3.3063885e-04  -6.3544194e-03  -5.8816181e-02
  -1.4937456e-03  -7.3817712e-04   5.1997437e-03  -1.5335061e-02   3.7436574e-02  -6.3394170e-03   4.6395571e-02  -5.1460541e-02   3.5082510e-02   1.8225258e-02   8.1113835e-02  -2.2210951e-02   1.3178412e-02   1.2561123e-02  -3.9985464e-02  -1.0723401e-01   3.8443012e-02  -1.9624093e-01  -1.1808047e-01  -1.3786995e-01   3.2270789e-02
   8.0558282e-03   3.6526195e-03  -1.6116170e-02  -7.1012962e-03   2.8718435e-03   4.6153365e-02  -7.1106836e-02  -1.1654575e-01   3.8419530e-02   6.7986899e-02  -4.8919195e-02   2.4709355e-01   4.4758415e-02   7.9594827e-02   5.0464261e-01   1.6969502e-01   2.1783737e-01   1.6892936e-01  -2.2685543e-01  -2.6421158e-01   1.2628455e-01
   7.5777458e-03  -2.4358630e-03  -2.3412890e-02  -1.2795322e-02  -5.2605702e-02   4.1553197e-03  -5.8469405e-02  -8.5152074e-02   8.6060054e-03   1.9160711e-01  -4.4526148e-02   2.7467588e-01   1.0778441e-01   4.1783089e-02   2.7232065e-01   3.2766214e-01   1.3695888e-01   2.0889554e-01   1.9297140e-02  -1.2556522e-01  -2.6923302e-01
   1.7479011e-02   1.2105767e-02   8.6042147e-03   6.5919492e-03   4.6508498e-02  -3.8698530e-02  -9.8107459e-03  -2.3019689e-02   7.3045553e-02   1.0924665e-01  -4.9039050e-02  -1.7448946e-01  -7.3967134e-02   2.8128627e-02   1.0026404e-01   1.8221219e-01   5.5965461e-02  -3.5114829e-01  -1.5805568e-01   1.2967292e-02   2.6226790e-01
   7.1339895e-03  -6.9507997e-03  -8.6104045e-03   5.8316404e-03   3.6103591e-03   1.0111677e-01  -2.1641061e-02  -1.3401803e-01   2.3656104e-02   7.5787321e-03   2.2068026e-02   9.5124330e-02  -2.8662603e-02  -1.0758109e-01  -3.7897050e-02  -1.1052074e-01   1.1703233e-02   2.3624137e-01   6.2681583e-02   4.3117499e-02  -1.1034218e-01
  -5.5994005e-04   7.3074439e-03  -5.2676639e-03  -5.2834652e-03  -4.5184510e-02  -5.0164206e-02   3.8972330e-02   1.1104953e-01  -8.1559718e-03   1.1168804e-02  -3.1650381e-02   5.5051075e-02  -7.8483927e-02   9.4899569e-02   6.9134810e-02   7.5081890e-02  -9.3645531e-02   1.2089814e-01  -1.3907235e-01  -4.2098257e-02   1.7655621e-02
  -2.5515379e-03   8.5069628e-03  -1.2584174e-04   2.9881115e-03  -6.8942005e-03  -1.7673942e-02  -5.6399755e-02  -4.0248666e-03  -3.1621537e-04   1.8794677e-02   7.2143239e-02  -3.0900956e-03  -2.6375187e-02  -1.8002339e-02   6.7615786e-02   5.6155653e-02   7.4187691e-02  -4.6010453e-02  -3.7618972e-02   3.0764043e-02   4.7727115e-02
  -2.3830064e-04   1.6096682e-03   1.9820534e-03   6.3130048e-04  -8.7054851e-04   2.3612151e-03   1.0427978e-02  -1.7326556e-03   1.3721039e-02  -1.0376408e-02   4.7699168e-04  -2.1588662e-03  -1.5402389e-02   6.3279434e-02   3.6105138e-02  -2.0972675e-02  -3.0353723e-02  -1.0893908e-02   1.0272695e-02   7.7672995e-03   7.0365208e-03
   4.0565804e-03  -1.5508760e-02  -2.1659243e-02   1.0082494e-02   1.3024907e-03   1.0059378e-01   4.8591512e-02  -2.5662870e-02  -9.2289742e-02  -2.1891497e-01   1.8190594e-02  -2.9957429e-02  -1.9476587e-01   1.6994202e-01   1.5180235e-01  -2.3219139e-01  -7.7378955e-02   1.2413886e-01  -9.4902117e-02   8.6491448e-02   4.0983828e-02
  -8.5625540e-04   2.8655533e-04  -3.1214235e-03  -3.7088676e-03  -6.0724848e-03   9.2270037e-03  -8.6536274e-04   6.1003291e-03  -1.9186337e-02  -1.6851870e-02   2.6782588e-03   1.0730417e-02  -2.7579520e-02  -2.2814872e-02   1.7323129e-02  -2.6551002e-02   2.3162629e-02  -2.7079419e-02  -2.3190348e-02  -9.0892285e-03  -2.5622575e-02
  -1.5891549e-03   8.4229298e-04   5.9885184e-03  -1.7336133e-02   3.4009706e-02  -1.0992284e-02   4.5680641e-02  -5.0892007e-02   3.1347885e-02   2.4904167e-02   7.0012720e-02  -3.6696898e-02   1.3189428e-03   2.6781526e-02  -3.5039321e-02  -1.1436795e-01  -3.8881809e-03  -2.3037667e-01  -1.5319662e-01  -1.1459492e-01   1.8035509e-02
   8.7377520e-03   4.6626670e-03  -1.7737851e-02  -7.2036779e-03   9.0228131e-04   5.2800289e-02  -7.0672770e-02  -1.1368872e-01   3.6186515e-02   6.9195723e-02  -4.5228462e-02   2.5198267e-01   2.6562424e-02   7.3645697e-02   5.0735066e-01   1.5933409e-01   2.1014188e-01   1.6628636e-01  -2.3464512e-01  -2.6698498e-01   1.1714307e-01
   7.6243338e-03  -2.7614438e-03  -2.3032415e-02  -1.3794547e-02  -5.4057376e-02   4.9780820e-03  -5.8320054e-02  -9.0783722e-02   1.1382317e-02   1.9460253e-01  -4.6453652e-02   2.8241458e-01   1.1725147e-01   2.2520086e-02   2.7901155e-01   3.2977839e-01   1.5654045e-01   2.2157665e-01   1.6231841e-02  -1.5110657e-01  -2.8633866e-01
   1.8167102e-02   1.2319264e-02   7.5824256e-03   7.0108880e-03   4.9066435e-02  -3.3471747e-02  -9.7163152e-03  -2.2325657e-02   7.1947129e-02   1.0073720e-01  -4.0937679e-02  -1.4743725e-01  -6.5304766e-02   3.4471076e-02   8.8557913e-02   1.6875587e-01   7.6875906e-02  -3.7025678e-01  -1.7142064e-01   4.6089873e-03   2.1343527e-01
   6.2005567e-03  -6.1513441e-03  -8.7984987e-03   8.8726997e-03  -1.5986398e-04   9.5810698e-02  -1.2970188e-02  -1.3781150e-01   2.3871448e-02   1.3478651e-02  -9.0783129e-03   6.7988480e-02  -5.2673612e-02  -1.0631186e-01  -4.8568130e-02  -8.0282057e-02  -4.2736691e-02   1.9804232e-01   3.6218929e-02   1.0187172e-01  -1.3151426e-01
  -1.2714984e-03   6.7913803e-03  -4.3931572e-03  -1.4984796e-03  -4.3853274e-02  -5.4591774e-02   4.1269693e-02   1.0986951e-01   3.7847095e-03   1.6872175e-02  -2.4034817e-02   5.3727750e-02  -9.1083294e-02   9.6061431e-02   5.7727122e-02   9.4135454e-02  -5.8188855e-02   9.4286055e-02  -1.6428244e-01  -4.1817902e-02   3.3034823e-02
  -2.0396819e-03   5.9100640e-03   8.7365594e-04  -7.3462463e-04  -1.1979001e-03  -1.9978265e-02  -6.9331751e-02   5.5056878e-03   8.3689481e-04   3.6962792e-02   2.3180138e-02  -1.7967171e-02  -2.0369222e-02  -2.2467765e-02   6.1714086e-02   4.6632564e-02   1.1196789e-01  -7.1719721e-03  -3.6626707e-02   2.4299726e-02   1.9399876e-03
  -8.1215699e-04   1.8217689e-03   2.4876554e-03  -1.9269753e-03   5.3958174e-03   8.2491612e-03   8.4288917e-03   3.4184259e-03   6.1710940e-03  -1.7418562e-02  -7.4832587e-03   4.8225208e-03  -7.7077564e-03   4.5229164e-02   5.6661130e-02  -2.4640517e-02  -2.4257961e-02  -7.8206357e-03   1.1670369e-02   2.3188066e-02   1.0105992e-02
   4.5606534e-03  -1.5522739e-02  -2.1147239e-02   1.4547549e-02   2.5155890e-03   7.1256291e-02   3.9622515e-02  -2.8062753e-02  -7.8131947e-02  -1.9453741e-01   1.6890440e-02  -4.6645677e-02  -1.9284254e-01   1.4052043e-01   1.8209364e-01  -2.3629438e-01  -3.9013611e-02   1.1074495e-01  -2.1010205e-02   4.6532639e-02   6.3239406e-02
  -1.0134491e-03  -5.7100811e-04  -2.4519884e-03  -3.1803411e-03   1.3000327e-03   9.9229615e-03  -2.0668371e-03   5.3677693e-03  -4.3523407e-04  -1.1479432e-02   2.4910547e-03  -5.1935830e-03  -2.0154962e-02   5.4078365e-03   5.2317465e-03  -1.1908376e-02   2.7646861e-02  -2.4519693e-02  -3.9194655e-02  -7.3371491e-03   6.3231195e-03
  -1.7294401e-03   2.5438871e-03   6.4774102e-03  -1.8082551e-02   2.9918826e-02  -1.4872223e-02   4.5463741e-02  -4.7776752e-02   2.6172825e-02   2.8694526e-02   5.4085538e-02  -5.1367055e-02  -1.0780720e-02   4.1326621e-02  -3.1029300e-02  -1.1065744e-01  -5.3418589e-02  -2.5240163e-01  -1.8157670e-01  -8.5523409e-02  -2.4882508e-03
   9.2601573e-03   5.4486984e-03  -1.8902478e-02  -7.1913457e-03  -1.5883996e-03   5.8945399e-02  -6.9669975e-02  -1.0986334e-01   3.4009805e-02   7.0238222e-02  -4.1633024e-02   2.5071457e-01   9.1144198e-03   6.4967073e-02   5.0611589e-01   1.5259740e-01   1.9961102e-01   1.5895188e-01  -2.3562433e-01  -2.6929308e-01   1.1598163e-01
   7.5699540e-03  -2.9950104e-03  -2.2220962e-02  -1.4770378e-02  -5.4689184e-02   5.4863908e-03  -5.5898028e-02  -9.5897958e-02   1.3382127e-02   1.9328376e-01  -4.5720798e-02   2.8555070e-01   1.2568765e-01   6.1424463e-03   2.8283929e-01   3.2981449e-01   1.6900775e-01   2.2349144e-01   1.5656082e-02  -1.7280198e-01  -3.0024446e-01
   1.8975667e-02   1.2848778e-02   5.8879349e-03   7.9756511e-03   4.8640265e-02  -2.4944047e-02  -1.0429828e-02  -1.7940597e-02   6.5452508e-02   8.8754712e-02  -3.0332055e-02  -1.1763659e-01  -5.6225709e-02   4.0162228e-02   7.9284036e-02   1.6137361e-01   8.5191006e-02  -3.5932838e-01  -1.6902197e-01  -4.2943899e-03   1.6061695e-01
   5.2343868e-03  -5.4732005e-03  -8.2060429e-03   1.1902116e-02   2.2263026e-04   9.1293775e-02  -3.9489455e-03  -1.4051742e-01   2.2620581e-02   1.2588220e-02  -3.5734732e-02   4.6491086e-02  -6.7600141e-02  -1.0332439e-01  -5.6499214e-02  -4.6211292e-02  -8.4715521e-02   1.4896435e-01   1.5028040e-02   1.4515094e-01  -1.4176988e-01
  -1.9332507e-03   5.8172632e-03  -2.9712662e-03  -4.3615469e-04  -3.9732784e-02  -6.1162342e-02   4.2232326e-02   1.0895179e-01   1.4950325e-02   1.7330306e-02  -1.0046184e-02   4.8811617e-02  -8.2307028e-02   1.0319075e-01   5.4263526e-02   1.0264465e-01  -1.5094981e-02   4.6589117e-02  -1.6627422e-01  -5.4068618e-02   5.3500883e-02
  -1.6971223e-03   3.1302840e-03   3.6427956e-03  -4.9321459e-03   3.4129803e-03  -2.1031271e-02  -7.5034261e-02   1.4564085e-02   4.3079957e-03   5.3404684e-02  -2.1289519e-02  -2.8184500e-02  -1.4713093e-02  -2.7546252e-02   4.8006908e-02   4.1857915e-02   1.3336164e-01   2.4016378e-02  -3.4777242e-02   1.9596476e-02  -3.4761616e-02
  -1.1182724e-03   1.8345276e-03   2.5829379e-03  -3.5132396e-03   9.2828859e-03   1.1856473e-02   5.5604042e-03   7.3995202e-03   6.3096707e-04  -1.9668366e-02  -1.1981839e-02   5.7120491e-03  -4.3858815e-03   2.7105829e-02   6.6853650e-02  -2.6718532e-02  -2.0332190e-02  -6.0769825e-03   1.2559703e-02   2.8574500e-02   8.4342229e-03
   4.9529080e-03  -1.5473021e-02  -2.0175941e-02   1.8940361e-02   3.3615632e-03   3.9970505e-02   3.1758325e-02  -3.1746093e-02  -6.0378476e-02  -1.6845040e-01   1.7712768e-02  -6.5257422e-02  -1.8661096e-01   1.0768773e-01   2.0968104e-01  -2.3743529e-01  -6.4815442e-03   9.5023027e-02   5.7102776e-02  -4.8744285e-03   8.5844633e-02
  -1.1020962e-03  -1.0555878e-03  -1.9017206e-03  -2.7011240e-03   6.6318423e-03   1.0298655e-02  -3.6384539e-03   5.3320899e-03   1.0877530e-02  -6.4806201e-03  -3.3860328e-04  -1.5485742e-02  -1.1986853e-02   2.1990383e-02  -2.3827436e-03  -9.6050699e-04   2.8300502e-02  -2.3195471e-02  -4.7574549e-02  -1.6422703e-03   3.3477813e-02
  -1.9122874e-03   4.2477243e-03   6.7160421e-03  -1.7603279e-02   2.5636995e-02  -1.7720712e-02   4.5767737e-02  -4.2284106e-02   1.9976779e-02   2.8483602e-02   3.4978378e-02  -6.5394723e-02  -2.1585348e-02   5.6330428e-02  -2.8303534e-02  -9.6123765e-02  -1.0595627e-01  -2.6361486e-01  -2.0180849e-01  -5.3752431e-02  -2.7256582e-02
   9.6111602e-03   5.9475171e-03  -1.9506183e-02  -7.1517634e-03  -4.1316317e-03   6.3959274e-02  -6.8060248e-02  -1.0577668e-01   3.2939635e-02   7.1199647e-02  -3.8042061e-02   2.4351084e-01  -6.4771891e-03   5.3972385e-02   5.0085011e-01   1.4851803e-01   1.8919475e-01   1.4435433e-01  -2.3155940e-01  -2.7262539e-01   1.2365482e-01
   7.4155322e-03  -3.0704430e-03  -2.1059846e-02  -1.5607691e-02  -5.4731348e-02   5.7715709e-03  -5.1178354e-02  -1.0003964e-01   1.4187941e-02   1.8748762e-01  -4.2670215e-02   2.8432971e-01   1.3210944e-01  -7.2735059e-03   2.8394165e-01   3.2802813e-01   1.7239950e-01   2.1708365e-01   1.7975132e-02  -1.8953769e-01  -3.1037805e-01
   1.9759903e-02   1.3527812e-02   3.8790282e-03   8.9541648e-03   4.4919229e-02  -1.4994471e-02  -1.1997066e-02  -1.0885530e-02   5.4605440e-02   7.5673873e-02  -1.8454058e-02  -9.0348665e-02  -4.6842066e-02   4.4520866e-02   7.1680229e-02   1.6084556e-01   8.1506281e-02  -3.2620417e-01  -1.5065697e-01  -1.1583902e-02   1.0630846e-01
   4.3342006e-03  -5.0434862e-03  -6.9180356e-03   1.4205199e-02   5.4077628e-03   8.7379029e-02   4.5042600e-03  -1.4185478e-01   2.0484073e-02   5.0251887e-03  -5.4618635e-02   3.3384781e-02  -6.9450109e-02  -9.7924825e-02  -6.0320942e-02  -1.5020108e-02  -1.0835294e-01   9.0960040e-02   2.8930268e-03   1.6636589e-01  -1.4058758e-01
  -2.3820411e-03   4.5973986e-03  -1.4353896e-03  -2.1099170e-03  -3.3908544e-02  -6.8682286e-02   4.1040988e-02   1.0900774e-01   2.3209764e-02   1.2712788e-02   6.8924622e-03   4.3527655e-02  -5.5587912e-02   1.1499409e-01   5.9230957e-02   9.8211444e-02   3.0445302e-02  -1.1309757e-02  -1.4769955e-01  -7.5127242e-02   7.1716235e-02
  -1.6925244e-03   5.5364720e-04   7.3239218e-03  -9.1656328e-03   6.6920763e-03  -1.9253667e-02  -7.0916738e-02   2.2594001e-02   1.0811912e-02   6.4136276e-02  -5.0632871e-02  -3.1097268e-02  -1.1200254e-02  -2.8912733e-02   2.8737632e-02   4.0111343e-02   1.3407553e-01   4.4805345e-02  -3.3591421e-02   1.3039513e-02  -6.0984681e-02
  -1.1147695e-03   1.6393572e-03   2.3421060e-03  -3.9222530e-03   1.0285474e-02   1.2642632e-02   2.4598238e-03   9.3321133e-03  -2.4387419e-03  -1.7495088e-02  -1.3035651e-02   1.5658633e-03  -3.9120856e-03   1.2929480e-02   6.5357079e-02  -2.6291434e-02  -1.8321363e-02  -4.8097921e-03   1.2910680e-02   2.5748526e-02   5.0449053e-03
   5.1891890e-03  -1.5284752e-02  -1.9008144e-02   2.3212760e-02   3.8580493e-03   8.0660718e-03   2.5590840e-02  -3.6780814e-02  -3.9492524e-02  -1.4222932e-01   2.2116731e-02  -8.5195948e-02  -1.7691740e-01   7.3382649e-02   2.3415248e-01  -2.3654585e-01   1.8644148e-02   7.6622769e-02   1.3661072e-01  -6.7277081e-02   1.0757589e-01
  -1.1313465e-03  -1.1652720e-03  -1.4992200e-03  -2.3036583e-03   9.3573915e-03   1.0230893e-02  -4.8840220e-03   4.9844691e-03   1.3467255e-02  -2.6621989e-03  -4.6088795e-03  -1.9079515e-02  -4.7653504e-03   2.4923692e-02  -6.1899536e-03   5.0066365e-03   2.5401536e-02  -2.3356019e-02  -4.9792300e-02   6.4187536e-03   5.3021329e-02
  -2.1354698e-03   5.8251861e-03   6.7615736e-03  -1.6045706e-02   2.1729723e-02  -1.9417019e-02   4.6536232e-02  -3.4800258e-02   1.3360818e-02   2.3591968e-02   1.4663593e-02  -7.7987295e-02  -2.9573871e-02   7.1870568e-02  -2.7037374e-02  -7.2232745e-02  -1.5692684e-01  -2.6633669e-01  -2.1307815e-01  -2.2396023e-02  -5.3847835e-02
   9.8007830e-03   6.1327959e-03  -1.9528859e-02  -7.1159747e-03  -6.2637166e-03   6.7399164e-02  -6.5769722e-02  -1.0202411e-01   3.3780202e-02   7.2201795e-02  -3.4393922e-02   2.3142667e-01  -1.9336398e-02   4.1273237e-02   4.9173904e-01   1.4591132e-01   1.8132406e-01   1.2142550e-01  -2.2451201e-01  -2.7807054e-01   1.3990898e-01
   7.1688889e-03  -2.9371396e-03  -1.9634372e-02  -1.6246288e-02  -5.4439694e-02   5.8377780e-03  -4.4343299e-02  -1.0288366e-01   1.3542430e-02   1.7750261e-01  -3.7795008e-02   2.7905068e-01   1.3560677e-01  -1.7787857e-02   2.8269716e-01   3.2465661e-01   1.6566998e-01   2.0494943e-01   2.3273580e-02  -2.0039309e-01  -3.1614162e-01
   2.0408432e-02   1.4156699e-02   1.9639074e-03   9.2944466e-03   3.8085919e-02  -5.9266382e-03  -1.4612658e-02  -2.4945855e-03   4.1479406e-02   6.4771405e-02  -6.6619083e-03  -6.9589289e-02  -3.7373618e-02   4.6868264e-02   6.4813373e-02   1.6570306e-01   6.9560838e-02  -2.8026394e-01  -1.1951253e-01  -1.5814063e-02   5.2496546e-02
   3.6006719e-03  -4.9336817e-03  -5.1369689e-03   1.5178108e-02   1.5415315e-02   8.3844465e-02   1.1514806e-02  -1.4181536e-01   1.8167989e-02  -7.7785619e-03  -6.3731452e-02   3.0197152e-02  -5.6253169e-02  -8.9768095e-02  -5.9507419e-02   6.4183737e-03  -1.1095683e-01   2.7646330e-02   1.4846321e-03   1.6275750e-01  -1.2955634e-01
  -2.4836036e-03   3.3830228e-03  -2.5837349e-04  -6.0918456e-03  -2.7855534e-02  -7.5689541e-02   3.7229418e-02   1.1075941e-01   2.6497897e-02   3.6305878e-03   2.2856893e-02   4.1338804e-02  -1.6989097e-02   1.2931037e-01   7.1757437e-02   8.0960267e-02   7.2392187e-02  -6.6247408e-02  -1.1341735e-01  -9.9703735e-02   8.0210700e-02
  -2.1032479e-03  -1.4926374e-03   1.0811614e-02  -1.3001578e-02   8.6883196e-03  -1.3669669e-02  -5.6506944e-02   2.9360253e-02   2.0200521e-02   6.6311178e-02  -5.7739669e-02  -2.5650629e-02  -1.0735741e-02  -2.2829921e-02   7.0911767e-03   3.8549339e-02   1.1455189e-01   5.4833072e-02  -3.4869607e-02   1.6623829e-03  -7.8675829e-02
  -7.9432317e-04   1.2475894e-03   1.8682099e-03  -3.0978418e-03   8.2986640e-03   1.0397340e-02  -2.1558399e-04   8.5065990e-03  -2.9278388e-03  -1.1863128e-02  -1.1107814e-02  -5.6370981e-03  -4.0292970e-03   6.5428070e-03   5.2223291e-02  -2.2904938e-02  -1.7425608e-02  -3.0283424e-03   1.2705471e-02   1.7950881e-02   3.2659123e-03
   5.2551669e-03  -1.4910702e-02  -1.7907401e-02   2.7311450e-02   4.0917681e-03  -2.3289746e-02   2.1222084e-02  -4.3085240e-02  -1.6231761e-02  -1.1700642e-01   3.0541077e-02  -1.0592895e-01  -1.6444385e-01   3.9239801e-02   2.5514428e-01  -2.3455659e-01   3.5965723e-02   5.5588201e-02   2.1452329e-01  -1.3924275e-01   1.2667505e-01
  -1.1157554e-03  -9.6231910e-04  -1.2452560e-03  -2.0083542e-03   9.2731360e-03   9.6183546e-03  -5.0744037e-03   3.2166358e-03   7.3030584e-03  -6.2051870e-04  -8.7986649e-03  -1.5763180e-02  -1.2523764e-04   1.3946031e-02  -7.5758228e-03   5.3850813e-03   1.9937573e-02  -2.4549363e-02  -4.8165358e-02   1.4590409e-02   6.2966357e-02
  -2.3940085e-03   7.1508952e-03   6.6571114e-03  -1.3656736e-02   1.8794258e-02  -2.0009361e-02   4.7637573e-02  -2.5833914e-02   7.0763402e-03   1.3945192e-02  -4.7287997e-03  -8.8348489e-02  -3.3443662e-02   8.7948465e-02  -2.7198335e-02  -4.1859874e-02  -2.0174618e-01  -2.6330121e-01  -2.1532358e-01   5.6856082e-03  -7.9799777e-02
   9.8599204e-03   6.0198625e-03  -1.9030994e-02  -7.0376045e-03  -7.5839198e-03   6.9068277e-02  -6.2683917e-02  -9.9039671e-02   3.6929448e-02   7.3253622e-02  -3.0709400e-02   2.1613182e-01  -2.8838141e-02   2.7650884e-02   4.7926823e-01   1.4377631e-01   1.7752155e-01   9.0596926e-02  -2.1640766e-01  -2.8618134e-01   1.6344694e-01
   6.8441271e-03  -2.5686876e-03  -1.8030764e-02  -1.6689894e-02  -5.4057908e-02   5.5953465e-03  -3.5752737e-02  -1.0426698e-01   1.1411396e-02   1.6405858e-01  -3.1626483e-02   2.7011487e-01   1.3544090e-01  -2.5535788e-02   2.7967145e-01   3.1974611e-01   1.4890593e-01   1.8952617e-01   3.1178287e-02  -2.0481654e-01  -3.1705232e-01
   2.0860591e-02   1.4551374e-02   5.0978591e-04   8.3917277e-03   2.8795187e-02  -5.6496192e-05  -1.8433659e-02   5.8455267e-03   2.8736767e-02   5.9666124e-02   3.9091209e-03  -5.7389869e-02  -2.8154797e-02   4.6780042e-02   5.7854585e-02   1.7271001e-01   5.4896561e-02  -2.3035211e-01  -8.1225973e-02  -1.6244627e-02   3.9587924e-04
   3.1292361e-03  -5.1517185e-03  -3.1470747e-03   1.4427371e-02   2.9533086e-02   8.0555713e-02   1.6342647e-02  -1.4065509e-01   1.6367258e-02  -2.3369490e-02  -6.2503036e-02   3.7104495e-02  -2.8436816e-02  -7.8948262e-02  -5.4523641e-02   1.2250881e-02  -9.3238996e-02  -3.5817571e-02   1.0252000e-02   1.3557232e-01  -1.1209544e-01
  -2.1634808e-03   2.4142271e-03   1.5271052e-04  -1.1601288e-02  -2.3164706e-02  -8.0715468e-02   3.0817717e-02   1.1475540e-01   2.3190816e-02  -8.9919317e-03   3.4197505e-02   4.5034937e-02   2.5971514e-02   1.4347159e-01   8.9751443e-02   5.3655018e-02   1.0472027e-01  -1.0538542e-01  -6.9376005e-02  -1.2196320e-01   7.3110692e-02
  -2.8814657e-03  -2.8229758e-03   1.3106861e-02  -1.6103003e-02   9.6511150e-03  -4.2679941e-03  -3.3731258e-02   3.4871939e-02   3.1379326e-02   5.8981187e-02  -4.1311741e-02  -1.2654555e-02  -1.3050736e-02  -7.4156081e-03  -1.3870454e-02   3.4275719e-02   7.9687795e-02   5.5681570e-02  -4.0198350e-02  -1.5689825e-02  -9.2069715e-02
  -1.8255063e-04   6.8569514e-04   1.2667268e-03  -1.1364763e-03   3.6009603e-03   5.2614018e-03  -1.9264301e-03   4.5404278e-03  -1.0496632e-03  -4.0562764e-03  -6.9254361e-03  -1.3482059e-02  -2.3576842e-03   1.0831891e-02   2.8806955e-02  -1.6740510e-02  -1.6520512e-02   8.2998544e-05   1.1894728e-02   9.0400090e-03   5.9304320e-03
   5.1674780e-03  -1.4343052e-02  -1.7074436e-02   3.1161934e-02   4.1940622e-03  -5.3121632e-02   1.8291806e-02  -5.0435333e-02   8.3681948e-03  -9.3389715e-02   4.2187785e-02  -1.2698594e-01  -1.4966812e-01   6.4253582e-03   2.7215731e-01  -2.3214593e-01   4.6070380e-02   3.2271595e-02   2.8786614e-01  -2.1823780e-01   1.4119961e-01
  -1.0700751e-03  -5.5011107e-04  -1.1190844e-03  -1.8292085e-03   6.5287265e-03   8.4104269e-03  -3.6439560e-03  -8.6084670e-04  -6.4804326e-03  -6.4696121e-04  -1.1425884e-02  -6.1489918e-03   6.4317143e-04  -9.5161720e-03  -8.1501709e-03   2.7272828e-04   1.3358701e-02  -2.5769530e-02  -4.5124023e-02   2.0460031e-02   6.2279673e-02
  -2.6766477e-03   8.1149958e-03   6.4167068e-03  -1.0752728e-02   1.7378247e-02  -1.9722497e-02   4.8868129e-02  -1.5913161e-02   1.9471050e-03   1.6152581e-04  -2.1112423e-02  -9.5655278e-02  -3.2292108e-02   1.0446606e-01  -2.8544573e-02  -9.0509086e-03  -2.3620993e-01  -2.5703479e-01  -2.0926810e-01   2.8123092e-02  -1.0293447e-01
   9.8364210e-03   5.6635630e-03  -1.8135834e-02  -6.7910064e-03  -7.8117042e-03   6.9026811e-02  -5.8663300e-02  -9.7082275e-02   4.2283656e-02   7.4139425e-02  -2.7155182e-02   1.9959328e-01  -3.4615660e-02   1.4004149e-02   4.6419877e-01   1.4166896e-01   1.7820130e-01   5.3506548e-02  -2.0868366e-01  -2.9691082e-01   1.9209191e-01
   6.4610154e-03  -1.9679315e-03  -1.6335900e-02  -1.7003118e-02  -5.3782691e-02   4.8825868e-03  -2.5896167e-02  -1.0420234e-01   8.0089162e-03   1.4825870e-01  -2.4637823e-02   2.5809086e-01   1.3112448e-01  -3.0662529e-02   2.7557484e-01   3.1304223e-01   1.2339659e-01   1.7286971e-01   4.0782452e-02  -2.0277841e-01  -3.1286673e-01
   2.1109123e-02   1.4585450e-02  -2.3355115e-04   5.8652413e-03   1.8091148e-02   7.1785639e-04  -2.3365010e-02   1.2915271e-02   1.9024729e-02   6.3490150e-02   1.2586377e-02  -5.3587820e-02  -1.9561465e-02   4.4339648e-02   5.0297589e-02   1.7783755e-01   4.3163590e-02  -1.8344869e-01  -4.2485992e-02  -1.2706087e-02  -4.9593938e-02
   2.9971532e-03  -5.6418983e-03  -1.2613544e-03   1.1843268e-02   4.6307481e-02   7.7556357e-02   1.8481588e-02  -1.3886135e-01   1.5627807e-02  -3.8755553e-02  -5.1756234e-02   5.2839032e-02   1.1130070e-02  -6.6039084e-02  -4.6803191e-02  -1.1521366e-03  -5.9156214e-02  -9.3310198e-02   2.6689042e-02   8.9737082e-02  -9.2793301e-02
  -1.4302540e-03   1.8711862e-03  -4.5013177e-04  -1.7637317e-02  -2.1213230e-02  -8.2573111e-02   2.2366656e-02   1.2117696e-01   1.2520097e-02  -2.3980208e-02   3.8233140e-02   5.5964509e-02   6.5595031e-02   1.5473319e-01   1.1020118e-01   2.1282416e-02   1.2245303e-01  -1.1885229e-01  -2.1718183e-02  -1.3658582e-01   4.7631782e-02
  -3.8613541e-03  -3.4280756e-03   1.3617458e-02  -1.8282940e-02   9.8883188e-03   7.9371327e-03  -6.5146710e-03   3.9251280e-02   4.2508474e-02   4.3293125e-02  -6.3431309e-03   5.4700773e-03  -1.6823455e-02   1.6657295e-02  -3.2093843e-02   2.5454385e-02   3.7326811e-02   5.0065514e-02  -5.0448083e-02  -3.7745634e-02  -1.0585787e-01
   6.6162546e-04  -6.6927933e-06   6.2704024e-04   1.7160412e-03  -3.1796988e-03  -2.2575120e-03  -2.3592576e-03  -2.4842684e-03   2.7140316e-03   4.5814838e-03  -1.3201750e-03  -1.9637051e-02   2.9632217e-03   2.6969544e-02  -2.3210686e-03  -8.6454571e-03  -1.4441761e-02   4.9597079e-03   1.0427497e-02   2.6297582e-03   1.4663112e-02
   4.9665882e-03  -1.3614619e-02  -1.6605268e-02   3.4660685e-02   4.3134728e-03  -8.0613427e-02   1.6130440e-02  -5.8479476e-02   3.3071289e-02  -7.1500468e-02   5.5189873e-02  -1.4787393e-01  -1.3290775e-01  -2.4380032e-02   2.8443915e-01  -2.2953080e-01   5.0148407e-02   7.2051475e-03   3.5383750e-01  -3.0067275e-01   1.4944610e-01
  -1.0047276e-03  -4.9678007e-05  -1.0866830e-03  -1.7763301e-03   1.5974357e-03   6.6274170e-03  -3.7073794e-04  -7.6204811e-03  -2.5750632e-02  -2.6647837e-03  -1.1392421e-02   8.3823105e-03  -3.1180870e-03  -4.2461912e-02  -9.2966485e-03  -9.5545866e-03   7.2653358e-03  -2.5825801e-02  -4.2602939e-02   2.2060475e-02   5.1029326e-02
  -2.9632035e-03   8.6338338e-03   6.0205205e-03  -7.6820061e-03   1.7883499e-02  -1.8945675e-02   4.9958091e-02  -5.4840989e-03  -1.2514572e-03  -1.6468552e-02  -3.2668619e-02  -9.9072205e-02  -2.5757254e-02   1.2119797e-01  -3.0649972e-02   2.1430398e-02  -2.5687942e-01  -2.4933811e-01  -1.9631627e-01   4.3230489e-02  -1.2160818e-01
   9.7894531e-03   5.1502549e-03  -1.7001158e-02  -6.1910419e-03  -6.8346169e-03   6.7553357e-02  -5.3578394e-02  -9.6252123e-02   4.9231964e-02   7.4385530e-02  -2.4092100e-02   1.8373101e-01  -3.6572566e-02   1.2765864e-03   4.4750405e-01   1.3996264e-01   1.8269649e-01   1.2531627e-02  -2.0208527e-01  -3.0963205e-01   2.2301018e-01
   6.0437302e-03  -1.1678850e-03  -1.4638554e-02  -1.7295503e-02  -5.3736354e-02   3.5142009e-03  -1.5332888e-02  -1.0287533e-01   3.7767374e-03   1.3144929e-01  -1.7185129e-02   2.4377237e-01   1.2247534e-01  -3.3266999e-02   2.7123250e-01   3.0397905e-01   9.1545677e-02   1.5651293e-01   5.0652033e-02  -1.9487718e-01  -3.0366598e-01
   2.1188201e-02   1.4218482e-02  -1.7763919e-04   1.7094232e-03   7.2722984e-03  -4.7093327e-03  -2.8885034e-02   1.7811797e-02   1.4330257e-02   7.7966454e-02   1.9199558e-02  -5.6165228e-02  -1.1908532e-02   4.0284783e-02   4.2083347e-02   1.7757963e-01   3.8440556e-02  -1.4415747e-01  -9.4489089e-03  -5.3996357e-03  -9.7680757e-02
   3.2463573e-03  -6.2918165e-03   2.3825962e-04   7.6376054e-03   6.3644517e-02   7.5110106e-02   1.7751279e-02  -1.3709258e-01   1.6243446e-02  -5.0983463e-02  -3.3507967e-02   7.4667555e-02   5.7414444e-02  -5.2085434e-02  -3.8542364e-02  -3.4168511e-02  -1.5373082e-02  -1.3861635e-01   4.6896243e-02   3.3058626e-02  -7.6484096e-02
  -3.8517975e-04   1.8349165e-03  -2.0901083e-03  -2.3135302e-02  -2.2830853e-02  -8.0625076e-02   1.2931761e-02   1.2967979e-01  -5.0548290e-03  -3.9893212e-02   3.3761251e-02   7.3562327e-02   9.5212256e-02   1.6070685e-01   1.2960937e-01  -9.8450437e-03   1.2271554e-01  -1.0191446e-01   2.3811077e-02  -1.3971605e-01   5.0876914e-03
  -4.8051157e-03  -3.4548326e-03   1.2311262e-02  -1.9511719e-02   9.6280982e-03   2.1174653e-02   2.0216520e-02   4.2608237e-02   5.1449570e-02   2.2079761e-02   3.7384801e-02   2.5397125e-02  -2.0169190e-02   4.6269127e-02  -4.6986812e-02   1.2051262e-02  -4.0125328e-03   4.0966528e-02  -6.5436507e-02  -6.1009718e-02  -1.2329580e-01
   1.6447195e-03  -7.7626519e-04   1.3840302e-05   5.0767614e-03  -1.1115612e-02  -1.1283420e-02  -1.4901317e-03  -1.1929684e-02   7.6873525e-03   1.2848352e-02   4.8831418e-03  -2.2327850e-02   1.2717539e-02   5.3824275e-02  -3.7492828e-02  -1.0833941e-05  -1.0283993e-02   1.1570316e-02   8.3300159e-03   1.3090396e-03   2.9365726e-02
   4.7034013e-03  -1.2790224e-02  -1.6483329e-02   3.7675611e-02   4.5951930e-03  -1.0502065e-01   1.3998907e-02  -6.6750716e-02   5.6563475e-02  -5.1114736e-02   6.7120406e-02  -1.6794045e-01  -1.1442766e-01  -5.2835970e-02   2.9096438e-01  -2.2636960e-01   4.9536843e-02  -1.9011739e-02   4.0990823e-01  -3.8213171e-01   1.5030310e-01
  -9.2382599e-04   4.2228721e-04  -1.1094904e-03  -1.8549559e-03  -4.7665547e-03   4.3732257e-03   4.4966742e-03  -1.6702256e-02  -4.7600527e-02  -6.2160129e-03  -8.2533217e-03   2.5770550e-02  -1.1212381e-02  -8.0493646e-02  -1.1809787e-02  -2.2712708e-02   3.0842131e-03  -2.3796084e-02  -4.1617670e-02   1.8403689e-02   3.0530446e-02
  -3.2244785e-03   8.6586099e-03   5.4212652e-03  -4.7841389e-03   2.0466650e-02  -1.8205702e-02   5.0584666e-02   5.1792520e-03  -1.9387814e-03  -3.4116439e-02  -3.8072294e-02  -9.7813252e-02  -1.4110772e-02   1.3776028e-01  -3.2940644e-02   4.4741355e-02  -2.6143415e-01  -2.4095112e-01  -1.7832026e-01   5.0137366e-02  -1.3483868e-01
   9.7836953e-03   4.5855698e-03  -1.5786983e-02  -5.0331059e-03  -4.7388579e-03   6.5062838e-02  -4.7357439e-02  -9.6527390e-02   5.6749333e-02   7.3330364e-02  -2.2079076e-02   1.7012002e-01  -3.4903377e-02  -9.6236194e-03   4.3028135e-01   1.3992388e-01   1.8951253e-01  -2.9728771e-02  -1.9664964e-01  -3.2323938e-01   2.5294311e-01
   5.6183649e-03  -2.2852520e-04  -1.3030457e-02  -1.7694357e-02  -5.3950432e-02   1.3499770e-03  -4.6292476e-03  -1.0062790e-01  -6.8089098e-04   1.1503472e-01  -9.5000018e-03   2.2820584e-01   1.0963604e-01  -3.3367360e-02   2.6756532e-01   2.9178501e-01   5.6639711e-02   1.4139152e-01   5.8919498e-02  -1.8238452e-01  -2.8988180e-01
   2.1150153e-02   1.3505738e-02   6.0315631e-04  -3.6158154e-03  -2.2830274e-03  -1.6398463e-02  -3.3971930e-02   2.0020049e-02   1.5431881e-02   1.0261597e-01   2.3900989e-02  -6.2029285e-02  -5.3743355e-03   3.5966166e-02   3.3602860e-02   1.7034644e-01   4.1930323e-02  -1.1488631e-01   1.3706822e-02   5.3118331e-03  -1.4424991e-01
   3.8660371e-03  -6.9459837e-03   1.1559514e-03   2.3387028e-03   7.9023197e-02   7.3684300e-02   1.4361167e-02  -1.3608606e-01   1.8212181e-02  -5.7698682e-02  -1.0642062e-02   9.8499521e-02   1.0378482e-01  -3.8539169e-02  -3.2340299e-02  -8.3289501e-02   2.9628108e-02  -1.6638841e-01   6.6310869e-02  -2.4960061e-02  -6.7238873e-02
   7.8569522e-04   2.2648535e-03  -4.5392444e-03  -2.7126060e-02  -2.8027425e-02  -7.4980716e-02   3.9126997e-03   1.3931563e-01  -2.7613104e-02  -5.4953004e-02   2.1310573e-02   9.5272471e-02   1.1018772e-01   1.5973019e-01   1.4452097e-01  -3.3314507e-02   1.0560628e-01  -5.6230882e-02   6.2178580e-02  -1.2967104e-01  -4.8773898e-02
  -5.4734276e-03  -3.1416937e-03   9.6806544e-03  -1.9884266e-02   8.9323828e-03   3.3438580e-02   4.1864246e-02   4.4967644e-02   5.6344647e-02  -1.0175291e-03   7.8340116e-02   4.3843186e-02  -2.1341027e-02   7.6748295e-02  -5.9332860e-02  -4.0787721e-03  -3.7506031e-02   3.0996023e-02  -8.3863327e-02  -8.0797780e-02  -1.4495397e-01
   2.6394859e-03  -1.5553750e-03  -5.3215685e-04   8.4504791e-03  -1.9050731e-02  -2.0602846e-02   4.0394863e-04  -2.2580981e-02   1.3081894e-02   1.9812198e-02   1.0919630e-02  -2.0703484e-02   2.6258713e-02   8.7683908e-02  -7.2154489e-02   7.4764000e-03  -3.6585035e-03   1.9410075e-02   5.7713831e-03   6.0873407e-03   4.8001841e-02
   4.4235739e-03  -1.1951836e-02  -1.6606249e-02   4.0052481e-02   5.1742584e-03  -1.2555478e-01   1.1349011e-02  -7.4670722e-02   7.7590751e-02  -3.1864071e-02   7.5690490e-02  -1.8623125e-01  -9.4569452e-02  -7.8672518e-02   2.9051158e-01  -2.2180905e-01   4.5322014e-02  -4.5770659e-02   4.5385085e-01  -4.5774623e-01   1.4342385e-01
  -8.2716414e-04   7.7340154e-04  -1.1523440e-03  -2.0617078e-03  -1.1581382e-02   1.8430064e-03   1.0196071e-02  -2.6934635e-02  -6.8615904e-02  -1.0514226e-02  -2.3593849e-03   4.3419737e-02  -2.2498823e-02  -1.1810053e-01  -1.5640378e-02  -3.7308470e-02   1.7863727e-03  -1.9385533e-02  -4.2025758e-02   9.7965383e-03   3.4272833e-03
  -3.4259992e-03   8.1816738e-03   4.5604315e-03  -2.3504193e-03   2.4953200e-02  -1.8130879e-02   5.0397657e-02   1.6046648e-02   1.2543090e-04  -5.0647395e-02  -3.6689365e-02  -9.1246757e-02   1.6971580e-03   1.5358174e-01  -3.4726604e-02   5.6721462e-02  -2.4895066e-01  -2.3143894e-01  -1.5725381e-01   4.8841139e-02  -1.4228661e-01
   9.8849437e-03   4.0798460e-03  -1.4626103e-02  -3.1477746e-03  -1.8160896e-03   6.1993285e-02  -4.0035431e-02  -9.7809727e-02   6.3577011e-02   7.0299609e-02  -2.1810224e-02   1.5979789e-01  -3.0113014e-02  -1.7890626e-02   4.1365192e-01   1.4356376e-01   1.9676220e-01  -7.0918709e-02  -1.9188085e-01  -3.3631369e-01   2.7840288e-01
   5.2090655e-03   7.6952609e-04  -1.1605700e-02  -1.8310444e-02  -5.4363600e-02  -1.6271087e-03   5.6971685e-03  -9.7931050e-02  -4.6980547e-03   1.0025782e-01  -1.7376297e-03   2.1267108e-01   9.3057313e-02  -3.0897794e-02   2.6557045e-01   2.7569600e-01   2.2510382e-02   1.2780940e-01   6.3441263e-02  -1.6721813e-01  -2.7225039e-01
   2.1037574e-02   1.2586895e-02   1.9110191e-03  -9.1847674e-03  -9.3182991e-03  -3.3282376e-02  -3.7170248e-02   1.9418881e-02   2.1572959e-02   1.3432019e-01   2.6826898e-02  -6.8028982e-02   1.5313714e-05   3.3098533e-02   2.5551288e-02   1.5759000e-01   5.1323685e-02  -9.6493806e-02   2.5748042e-02   1.9095010e-02  -1.8930083e-01
   4.7806778e-03  -7.4266125e-03   1.4213586e-03  -3.2604279e-03   8.9804884e-02   7.3869664e-02   8.9247173e-03  -1.3653204e-01   2.1256234e-02  -5.7583010e-02   1.3494053e-02   1.1918619e-01   1.4282572e-01  -2.7126239e-02  -3.0757838e-02  -1.4107986e-01   6.6727834e-02  -1.7304453e-01   8.0448791e-02  -7.4525953e-02  -6.7471675e-02
   1.8375975e-03   2.9989632e-03  -7.3376547e-03  -2.8876908e-02  -3.5848552e-02  -6.6574586e-02  -3.1855849e-03   1.4856576e-01  -5.1770103e-02  -6.6984755e-02   3.0987771e-03   1.1689684e-01   1.0859300e-01   1.5111741e-01   1.5208916e-01  -4.3937496e-02   7.4672619e-02   1.0117230e-02   8.9211381e-02  -1.0731452e-01  -1.0422604e-01
  -5.6978368e-03  -2.7330222e-03   6.5394129e-03  -1.9563944e-02   7.6892373e-03   4.3097144e-02   5.5438900e-02   4.6267339e-02   5.6163166e-02  -2.2616933e-02   1.0685379e-01   5.8472262e-02  -1.9402452e-02   1.0326956e-01  -7.0742136e-02  -1.9815385e-02  -5.9812447e-02   2.2122670e-02  -1.0353849e-01  -9.2817434e-02  -1.6855264e-01
   3.4910111e-03  -2.2635626e-03  -9.8665442e-04   1.1271333e-02  -2.5701122e-02  -2.8746133e-02   2.7871482e-03  -3.2714668e-02   1.8078308e-02   2.4863033e-02   1.6087672e-02  -1.5035218e-02   4.1445908e-02   1.2241727e-01  -1.0122422e-01   1.2160201e-02   5.1418697e-03   2.7552007e-02   3.0737491e-03   1.6165250e-02   6.6748527e-02
   4.1543229e-03  -1.1182825e-02  -1.6836534e-02   4.1623849e-02   6.1837912e-03  -1.4127811e-01   8.0276800e-03  -8.1545875e-02   9.5077071e-02  -1.3433192e-02   7.9419136e-02  -2.0139572e-01  -7.3851482e-02  -1.0137614e-01   2.8180285e-01  -2.1465722e-01   3.8113968e-02  -7.2455290e-02   4.8370083e-01  -5.2262008e-01   1.2918080e-01
  -7.1512900e-04   9.5074062e-04  -1.1900347e-03  -2.3788731e-03  -1.7711311e-02  -6.7977621e-04   1.5510214e-02  -3.6421939e-02  -8.5195862e-02  -1.4563330e-02   5.1493769e-03   5.8409197e-02  -3.4964916e-02  -1.4908974e-01  -1.9808006e-02  -5.1076755e-02   3.6956925e-03  -1.3119799e-02  -4.2524153e-02  -2.1179496e-03  -2.6360403e-02
  -3.5358192e-03   7.2397262e-03   3.3906422e-03  -5.8997271e-04   3.0783006e-02  -1.9413004e-02   4.9060411e-02   2.7381295e-02   4.7276144e-03  -6.3914364e-02  -2.8713012e-02  -7.9025791e-02   2.0043148e-02   1.6788880e-01  -3.5220595e-02   5.4674860e-02  -2.2006307e-01  -2.1930611e-01  -1.3485970e-01   4.0166231e-02  -1.4409431e-01
   1.0158265e-02   3.7334132e-03  -1.3603363e-02  -4.6069448e-04   1.4580591e-03   5.8678532e-02  -3.1791839e-02  -9.9968965e-02   6.8461343e-02   6.4861943e-02  -2.3978067e-02   1.5321052e-01  -2.3018434e-02  -2.2855427e-02   3.9866673e-01   1.5327120e-01   2.0270418e-01  -1.0926386e-01  -1.8707433e-01  -3.4732714e-01   2.9580083e-01
   4.8329967e-03   1.7330083e-03  -1.0457565e-02  -1.9202904e-02  -5.4835261e-02  -5.2361886e-03   1.5217834e-02  -9.5348949e-02  -7.6661670e-03   8.7977665e-02   5.9299954e-03   1.9861066e-01   7.3447923e-02  -2.5740522e-02   2.6629031e-01   2.5523833e-01  -6.8532215e-03   1.1542646e-01   6.1983067e-02  -1.5184379e-01  -2.5169283e-01
   2.0858809e-02   1.1654475e-02   3.4922268e-03  -1.3712823e-02  -1.2909627e-02  -5.3277358e-02  -3.6804764e-02   1.6248107e-02   3.0448048e-02   1.6741758e-01   2.7731284e-02  -7.1943889e-02   4.3381449e-03   3.3350079e-02   1.8638830e-02   1.4429653e-01   6.1007631e-02  -8.9111738e-02   2.8615059e-02   3.5800251e-02  -2.3189294e-01
   5.8490997e-03  -7.5611498e-03   1.1051488e-03  -8.2007509e-03   9.3609101e-02   7.6240989e-02   2.4074906e-03  -1.3892111e-01   2.4893184e-02  -5.0593355e-02   3.5510783e-02   1.3106180e-01   1.6734696e-01  -1.9634918e-02  -3.5874643e-02  -1.9687126e-01   8.7536011e-02  -1.5748119e-01   8.5535271e-02  -1.0699304e-01  -7.7348841e-02
   2.5086106e-03   3.7787818e-03  -9.8588722e-03  -2.7996950e-02  -4.4417360e-02  -5.7090357e-02  -7.0436062e-03   1.5550198e-01  -7.2975987e-02  -7.3455136e-02  -1.7305546e-02   1.3332467e-01   9.1459222e-02   1.3525680e-01   1.5060138e-01  -3.8911726e-02   3.6800780e-02   8.3905871e-02   1.0171002e-01  -7.6030848e-02  -1.4883703e-01
  -5.4311302e-03  -2.4018503e-03   3.7270664e-03  -1.8722816e-02   5.6809163e-03   4.9379641e-02   6.0395572e-02   4.6414300e-02   5.1043657e-02  -4.0518159e-02   1.1813660e-01   6.8473759e-02  -1.4620918e-02   1.2229782e-01  -8.2868238e-02  -3.1910541e-02  -7.1774886e-02   1.5695769e-02  -1.2185733e-01  -9.4760876e-02  -1.8989914e-01
   4.0303221e-03  -2.8123712e-03  -1.3309145e-03   1.2963687e-02  -2.9788102e-02  -3.4131040e-02   4.9555722e-03  -4.0271874e-02   2.1908184e-02   2.7702388e-02   1.9727520e-02  -6.7057923e-03   5.4910596e-02   1.5014495e-01  -1.1961807e-01   1.2766272e-02   1.5110159e-02   3.4771892e-02   6.7114288e-04   2.9061164e-02   8.0536815e-02
   3.8978296e-03  -1.0556497e-02  -1.7057777e-02   4.2217167e-02   7.7739634e-03  -1.5104843e-01   4.3589831e-03  -8.6561749e-02   1.0818991e-01   4.3067239e-03   7.8058834e-02  -2.1168264e-01  -5.2996394e-02  -1.1993095e-01   2.6365483e-01  -2.0362094e-01   2.8055470e-02  -9.8413256e-02   4.9767164e-01  -5.7218503e-01   1.0844957e-01
  -5.9348719e-04   9.4660474e-04  -1.2123300e-03  -2.7678150e-03  -2.1978553e-02  -2.8482549e-03   1.8931194e-02  -4.2799280e-02  -9.3948253e-02  -1.7324911e-02   1.2493587e-02   6.7774355e-02  -4.5952352e-02  -1.6719624e-01  -2.2559650e-02  -6.1578618e-02   8.4228880e-03  -6.4069502e-03  -4.0969157e-02  -1.4559920e-02  -5.3886667e-02
  -3.5355156e-03   5.9129894e-03   1.8993516e-03   3.9423231e-04   3.7004541e-02  -2.2775198e-02   4.6305453e-02   3.9766284e-02   1.1147315e-02  -7.2063852e-02  -1.5210156e-02  -6.1215230e-02   3.8692502e-02   1.7971848e-01  -3.3541971e-02   3.8051103e-02  -1.7696197e-01  -2.0231415e-01  -1.1234391e-01   2.5622240e-02  -1.4061077e-01
   1.0668883e-02   3.6243394e-03  -1.2747253e-02   2.9541657e-03   4.4760993e-03   5.5227482e-02  -2.2965762e-02  -1.0288162e-01   7.0409019e-02   5.7116227e-02  -2.9077047e-02   1.5029808e-01  -1.4718300e-02  -2.3978224e-02   3.8624141e-01   1.7128891e-01   2.0628225e-01  -1.4373453e-01  -1.8170031e-01  -3.5486478e-01   3.0149755e-01
   4.4945138e-03   2.5645249e-03  -9.6726314e-03  -2.0351272e-02  -5.5172773e-02  -9.0391199e-03   2.3612207e-02  -9.3497287e-02  -9.1455963e-03   7.8482032e-02   1.3202159e-02   1.8751925e-01   5.1694499e-02  -1.7791070e-02   2.7076920e-01   2.3052125e-01  -2.7678259e-02   1.0327962e-01   5.2404760e-02  -1.3912952e-01  -2.2913566e-01
   2.0573259e-02   1.0908462e-02   5.1121874e-03  -1.5772269e-02  -1.2654962e-02  -7.3574235e-02  -3.1315961e-02   1.1060291e-02   3.8552085e-02   1.9442013e-01   2.5767670e-02  -7.3172196e-02   7.6683965e-03   3.7863438e-02   1.3243389e-02   1.3854607e-01   6.3149431e-02  -9.2779179e-02   2.6849738e-02   5.5516421e-02  -2.6978113e-01
   6.8774885e-03  -7.2131420e-03   4.0713110e-04  -1.1497728e-02   8.8721096e-02   8.1177643e-02  -3.9966369e-03  -1.4338599e-01   2.8539079e-02  -3.7971021e-02   5.2368317e-02   1.2875109e-01   1.7150464e-01  -1.7631137e-02  -4.8886188e-02  -2.3822005e-01   8.5800397e-02  -1.2147202e-01   7.9001842e-02  -1.1616944e-01  -9.4645303e-02
   2.5711485e-03   4.2976125e-03  -1.1415515e-02  -2.4494189e-02  -5.1197573e-02  -4.8715159e-02  -6.8193282e-03   1.5807015e-01  -8.6142600e-02  -7.1694643e-02  -3.5580170e-02   1.3953140e-01   6.2565284e-02   1.1354811e-01   1.3987126e-01  -1.8575824e-02   1.4018631e-03   1.4919275e-01   9.7628582e-02  -4.1266986e-02  -1.6949363e-01
  -4.7583786e-03  -2.2054645e-03   1.8242875e-03  -1.7495532e-02   2.6990572e-03   5.2555945e-02   5.8732559e-02   4.5358539e-02   4.2303615e-02  -5.4183970e-02   1.1367320e-01   7.4620264e-02  -8.4123333e-03   1.3258057e-01  -9.6666413e-02  -3.8247292e-02  -7.7833342e-02   1.2581519e-02  -1.3638537e-01  -8.7313983e-02  -2.0452589e-01
   4.0963794e-03  -3.1138179e-03  -1.5415484e-03   1.3022249e-02  -3.0203173e-02  -3.5271712e-02   6.1658397e-03  -4.3140727e-02   2.3939418e-02   2.8290554e-02   2.1208491e-02   2.0276884e-03   6.2642760e-02   1.6242022e-01  -1.2293442e-01   8.7186432e-03   2.4645679e-02   3.9766294e-02  -9.5861222e-04   4.1071722e-02   8.3949239e-02
   3.6332306e-03  -1.0131935e-02  -1.7216676e-02   4.1659897e-02   1.0133991e-02  -1.5354014e-01   1.0681489e-03  -8.8785849e-02   1.1633525e-01   2.1270884e-02   7.2629441e-02  -2.1504414e-01  -3.2868685e-02  -1.3270535e-01   2.3509690e-01  -1.8752092e-01   1.5062533e-02  -1.2293088e-01   4.9406467e-01  -6.0238412e-01   8.2333845e-02
  -4.7565671e-04   7.9307224e-04  -1.2267794e-03  -3.1642422e-03  -2.3321655e-02  -4.3034332e-03   1.8921144e-02  -4.3634731e-02  -9.2165436e-02  -1.7909464e-02   1.7529359e-02   6.8860707e-02  -5.2522335e-02  -1.6688795e-01  -2.1789073e-02  -6.6474709e-02   1.4937767e-02  -1.4661994e-03  -3.5013162e-02  -2.4012821e-02  -7.3666197e-02
  -3.4325123e-03   4.3194914e-03   1.2916223e-04   6.1572031e-04   4.2331534e-02  -2.8952804e-02   4.1999183e-02   5.4107672e-02   1.8185661e-02  -7.3799599e-02   1.9391006e-03  -3.8380588e-02   5.4929007e-02   1.8797128e-01  -2.8707294e-02   8.8985453e-03  -1.2320054e-01  -1.7795024e-01  -9.0175983e-02   7.1610727e-03  -1.3204948e-01
   1.1485197e-02   3.8008721e-03  -1.2034309e-02   6.8407187e-03   6.5788186e-03   5.1430215e-02  -1.4041027e-02  -1.0646142e-01   6.8908828e-02   4.7944791e-02  -3.7185893e-02   1.5069031e-01  -6.5220894e-03  -2.0801065e-02   3.7713733e-01   1.9914119e-01   2.0755496e-01  -1.7402816e-01  -1.7573885e-01  -3.5783474e-01   2.9178743e-01
   4.1794587e-03   3.1700804e-03  -9.3231949e-03  -2.1642380e-02  -5.5168790e-02  -1.2307842e-02   3.0662208e-02  -9.2997461e-02  -8.9439579e-03   7.1374052e-02   1.9554319e-02   1.8081414e-01   2.8763396e-02  -7.0452341e-03   2.7999571e-01   2.0246006e-01  -3.6703929e-02   8.9848095e-02   3.2807849e-02  -1.3217716e-01  -2.0529792e-01
   2.0090475e-02   1.0507320e-02   6.6143457e-03  -1.4100020e-02  -8.8020793e-03  -9.1066314e-02  -1.9665200e-02   4.6724922e-03   4.1884271e-02   2.0732429e-01   1.9582362e-02  -7.2903301e-02   9.9351112e-03   4.6826720e-02   9.1432282e-03   1.4997777e-01   4.9535661e-02  -1.0755441e-01   2.6359851e-02   7.8446322e-02  -2.9942205e-01
   7.6468447e-03  -6.3120102e-03  -3.8262769e-04  -1.2311739e-02   7.4490153e-02   8.8670739e-02  -9.0536671e-03  -1.4956630e-01   3.1615387e-02  -2.2035129e-02   6.1702661e-02   1.0821345e-01   1.5193576e-01  -2.2119260e-02  -6.9771646e-02  -2.5303844e-01   5.8683405e-02  -6.9695349e-02   5.9866030e-02  -9.9347820e-02  -1.1511378e-01
   1.8853988e-03   4.2661820e-03  -1.1393844e-02  -1.8779376e-02  -5.3476616e-02  -4.3735107e-02  -2.3860613e-03   1.5447004e-01  -8.6567761e-02  -5.9357825e-02  -4.7432556e-02   1.3168891e-01   2.7772640e-02   8.8198143e-02   1.2140893e-01   1.3420809e-02  -2.1114631e-02   1.9051494e-01   7.6375359e-02  -9.6600166e-03  -1.5499602e-01
  -3.8645022e-03  -2.0839152e-03   9.7741195e-04  -1.5957241e-02  -1.3319077e-03   5.3714016e-02   5.4250983e-02   4.3130559e-02   3.2087240e-02  -6.4621266e-02   1.0044699e-01   7.8766079e-02  -2.8252515e-03   1.3530399e-01  -1.1188802e-01  -3.8751507e-02  -8.4298705e-02   1.3270352e-02  -1.4531697e-01  -7.4160637e-02  -2.0936132e-01
   3.5657387e-03  -3.0925651e-03  -1.5847814e-03   1.1107632e-02  -2.6198578e-02  -3.1045498e-02   5.7854129e-03  -3.9535804e-02   2.3765382e-02   2.6777770e-02   1.9957384e-02   8.4782582e-03   6.0838779e-02   1.5183971e-01  -1.0825875e-01   3.6531028e-04   3.1824807e-02   4.1453916e-02  -1.3676466e-03   4.8006657e-02   7.2388125e-02
   3.3264061e-03  -9.9570720e-03  -1.7336127e-02   3.9781023e-02   1.3508805e-02  -1.4734599e-01  -9.4559491e-04  -8.7187988e-02   1.1908397e-01   3.7249676e-02   6.5029518e-02  -2.0933408e-01  -1.4338477e-02  -1.3753665e-01   1.9543521e-01  -1.6540164e-01  -7.6923908e-04  -1.4522703e-01   4.7122349e-01  -6.0963192e-01   5.1964643e-02
  -3.8223085e-04   5.4848105e-04  -1.2576910e-03  -3.4795620e-03  -2.0990212e-02  -4.7427643e-03   1.4246121e-02  -3.6942602e-02  -7.8350271e-02  -1.5767130e-02   1.8128663e-02   5.9756525e-02  -5.1959690e-02  -1.4436001e-01  -1.5629182e-02  -6.3865506e-02   2.1767700e-02  -1.0217618e-03  -2.2904974e-02  -2.6826383e-02  -8.0415615e-02
  -3.2710466e-03   2.6036999e-03  -1.8089560e-03   1.9865856e-04   4.5268285e-02  -3.8693916e-02   3.6205263e-02   7.1614693e-02   2.4282234e-02  -6.8554781e-02   2.0208973e-02  -1.1605295e-02   6.5768941e-02   1.9151167e-01  -1.9616212e-02  -2.8017321e-02  -6.3296388e-02  -1.4398781e-01  -6.8036210e-02  -1.3150295e-02  -1.1813304e-01
   1.2682885e-02   4.2795299e-03  -1.1403645e-02   1.0758196e-02   7.1538705e-03   4.6707001e-02  -5.5986594e-03  -1.1068193e-01   6.4068800e-02   3.9163245e-02  -4.7787521e-02   1.5395290e-01   1.6430069e-04  -1.2873383e-02   3.7198358e-01   2.3715281e-01   2.0791481e-01  -2.0042538e-01  -1.6987882e-01  -3.5562534e-01   2.6285413e-01
   3.8509155e-03   3.4641952e-03  -9.4600401e-03  -2.2878401e-02  -5.4644011e-02  -1.4027966e-02   3.6222060e-02  -9.4427149e-02  -7.1397886e-03   6.5567842e-02   2.4196011e-02   1.7971447e-01   5.6030813e-03   6.3113576e-03   2.9483021e-01   1.7284629e-01  -3.1346407e-02   7.3171240e-02   1.6090027e-03  -1.3415373e-01  -1.8048000e-01
   1.9285176e-02   1.0524667e-02   7.9423536e-03  -7.9604091e-03  -2.2812617e-03  -1.0285624e-01  -1.7436023e-03  -1.8741865e-03   3.6924289e-02   1.9938226e-01   7.8033437e-03  -7.3681467e-02   1.0802979e-02   5.9217997e-02   5.4415359e-03   1.8719105e-01   1.3907141e-02  -1.3296680e-01   3.2753535e-02   1.0458218e-01  -3.1647727e-01
   7.9524754e-03  -4.8772923e-03  -9.4537339e-04  -1.0129213e-02   5.1672745e-02   9.8147647e-02  -1.1720246e-02  -1.5652652e-01   3.3627513e-02  -5.8114146e-03   6.2061684e-02   6.7927975e-02   1.0879833e-01  -3.3178936e-02  -9.7060988e-02  -2.3218259e-01   7.7221646e-03  -9.4140763e-03   2.9020812e-02  -5.7934076e-02  -1.3333795e-01
   4.4566650e-04   3.4868986e-03  -9.4009605e-03  -1.1619673e-02  -4.9022712e-02  -4.4010121e-02   5.5330783e-03   1.4358502e-01  -7.1060973e-02  -3.5118189e-02  -4.9463062e-02   1.0820882e-01  -6.0246530e-03   6.1911788e-02   9.8313947e-02   5.0608277e-02  -2.1454666e-02   1.9635525e-01   3.9233880e-02   1.2168456e-02  -9.8946177e-02
  -2.9682923e-03  -1.8955787e-03   8.9257659e-04  -1.4126851e-02  -6.2621335e-03   5.4165166e-02   5.1107868e-02   3.9799727e-02   2.2727951e-02  -7.3681005e-02   8.8111644e-02   8.2912292e-02   2.8135042e-04   1.3327278e-01  -1.2688426e-01  -3.5577689e-02  -9.6939631e-02   1.7897553e-02  -1.4758202e-01  -6.0870872e-02  -2.0374381e-01
   2.3874966e-03  -2.7015975e-03  -1.4182755e-03   7.1490252e-03  -1.7591139e-02  -2.0997970e-02   3.4452273e-03  -2.8443301e-02   2.1291142e-02   2.3445775e-02   1.5551395e-02   1.0125312e-02   4.6911173e-02   1.1391998e-01  -7.5021058e-02  -1.0936455e-02   3.4794715e-02   3.9310157e-02  -2.1103500e-04   4.6115487e-02   4.3378083e-02
   2.9443901e-03  -1.0076399e-02  -1.7494497e-02   3.6409987e-02   1.8203149e-02  -1.3113943e-01  -9.3703693e-04  -8.0682252e-02   1.1605128e-01   5.2089064e-02   5.7323182e-02  -1.9255983e-01   1.8849556e-03  -1.3200908e-01   1.4426208e-01  -1.3648764e-01  -1.8701275e-02  -1.6446786e-01   4.2756398e-01  -5.9056869e-01   1.8479780e-02
  -3.3827815e-04   2.8053638e-04  -1.3396759e-03  -3.6116301e-03  -1.4752643e-02  -3.9921045e-03   4.3455530e-03  -2.1752204e-02  -5.2734285e-02  -1.0850212e-02   1.2637615e-02   3.9791240e-02  -4.2397863e-02  -9.8659760e-02  -3.0910640e-03  -5.2677558e-02   2.7290617e-02  -7.6840019e-03  -4.2586691e-03  -2.0008118e-02  -7.0020853e-02
  -3.1391426e-03   9.1980741e-04  -3.7315069e-03  -6.4508294e-04   4.4301903e-02  -5.2782529e-02   2.9233321e-02   9.3755837e-02   2.7713346e-02  -5.6539611e-02   3.6685938e-02   1.7590336e-02   6.8269550e-02   1.8931374e-01  -5.0344209e-03  -6.5496720e-02  -2.1459101e-03  -9.9062033e-02  -4.4904610e-02  -3.3519480e-02  -9.7776614e-02
   1.4348556e-02   5.0487724e-03  -1.0776406e-02   1.4118030e-02   5.7380060e-03   4.0111161e-02   1.7613194e-03  -1.1559301e-01   5.6627593e-02   3.3504468e-02  -5.9690477e-02   1.5981336e-01   3.9875621e-03   3.2775936e-04   3.7131996e-01   2.8420539e-01   2.1002248e-01  -2.2360641e-01  -1.6552155e-01  -3.4816845e-01   2.1074948e-01
   3.4476232e-03   3.3720559e-03  -1.0108030e-02  -2.3809633e-02  -5.3488384e-02  -1.2943332e-02   4.0165869e-02  -9.8269100e-02  -4.0367825e-03   5.9415386e-02   2.6111492e-02   1.8515967e-01  -1.6936205e-02   2.1830922e-02   3.1593089e-01   1.4419604e-01  -9.6995301e-03   5.1042465e-02  -4.2471556e-02  -1.4814927e-01  -1.5439616e-01
   1.8027638e-02   1.0919018e-02   9.1143219e-03   2.4902244e-03   5.3789101e-03  -1.0677645e-01   2.1283067e-02  -7.3509569e-03   2.1734580e-02   1.6710230e-01  -1.0109854e-02  -7.8411965e-02   9.6450630e-03   7.2814450e-02   7.5332410e-04   2.5434633e-01  -4.5577993e-02  -1.6687282e-01   4.9560184e-02   1.3321984e-01  -3.1684180e-01
   7.6501353e-03  -3.0328029e-03  -1.0102880e-03  -4.9297489e-03   2.2674104e-02   1.0834704e-01  -1.1382622e-02  -1.6275371e-01   3.4189137e-02   7.4247505e-03   5.3041881e-02   1.0064439e-02   4.6592816e-02  -4.9623209e-02  -1.2771624e-01  -1.7216650e-01  -6.0702784e-02   5.0134995e-02  -1.0526023e-02   2.3986323e-03  -1.4395217e-01
  -1.5884922e-03   1.9245657e-03  -5.4051936e-03  -4.0521121e-03  -3.6828890e-02  -5.0394146e-02   1.5367623e-02   1.2540305e-01  -3.9120149e-02   4.7942277e-04  -3.9983163e-02   7.0543174e-02  -3.2200053e-02   3.7531077e-02   7.4859610e-02   8.4798980e-02   6.1199429e-03   1.6228927e-01  -1.0182027e-02   1.9026181e-02  -2.5620699e-03
  -2.2429013e-03  -1.4728954e-03   1.0027733e-03  -1.1988295e-02  -1.1686969e-02   5.4625458e-02   5.2006228e-02   3.5346694e-02   1.5986093e-02  -8.2966235e-02   8.4867009e-02   8.8089356e-02   1.0499915e-04   1.2928568e-01  -1.3869667e-01  -3.2421275e-02  -1.1850590e-01   2.6171811e-02  -1.4252436e-01  -5.2894379e-02  -1.8931260e-01
   6.1973498e-04  -1.9411084e-03  -1.0022222e-03   1.4413733e-03  -4.9614727e-03  -5.6547687e-03  -8.2570575e-04  -1.0081314e-02   1.6801271e-02   1.8682226e-02   7.8818766e-03   5.2761116e-03   2.0529675e-02   4.9004787e-02  -2.5814644e-02  -2.2911266e-02   3.2240624e-02   3.3645172e-02   2.6660134e-03   3.3113365e-02  -2.1707680e-03
   2.4699249e-03  -1.0539518e-02  -1.7777557e-02   3.1375179e-02   2.4568600e-02  -1.0385777e-01   1.3388413e-03  -6.8186188e-02   1.0676373e-01   6.5911222e-02   5.0903381e-02  -1.6313021e-01   1.5394301e-02  -1.1386086e-01   8.1424639e-02  -9.9990325e-02  -3.6953459e-02  -1.7979566e-01   3.6167570e-01  -5.4168909e-01  -1.6777341e-02
  -3.6900391e-04   5.0177251e-05  -1.5047589e-03  -3.4657012e-03  -5.0858355e-03  -2.0679851e-03  -1.0311554e-02   1.3402072e-03  -1.7711247e-02  -3.7180278e-03   3.7406007e-04   1.0057944e-02  -2.3513554e-02  -3.2821781e-02   1.5374073e-02  -3.3064720e-02   3.0077225e-02  -2.3031653e-02   1.9381353e-02  -2.1434138e-03  -4.0643441e-02
  -3.1694901e-03  -5.8890843e-04  -5.3875502e-03  -1.6545748e-03   3.8149842e-02  -7.2083156e-02   2.1659183e-02   1.2218844e-01   2.6850179e-02  -3.8653779e-02   4.8386017e-02   4.7440853e-02   5.9930204e-02   1.8063926e-01   1.6429208e-02  -9.4600741e-02   5.5700889e-02  -4.3182061e-02  -1.9249586e-02  -5.2849392e-02  -6.8851882e-02
   1.6581128e-02   6.0773773e-03  -1.0073684e-02   1.6262639e-02   2.1054311e-03   3.0390762e-02   7.5231039e-03  -1.2133312e-01   4.7818181e-02   3.4393799e-02  -7.1103387e-02   1.6829840e-01   3.8083739e-03   1.9456369e-02   3.7563279e-01   3.3785349e-01   2.1742251e-01  -2.4452308e-01  -1.6456820e-01  -3.3587990e-01   1.3145272e-01
   2.8860490e-03   2.8287718e-03  -1.1266849e-02  -2.4191759e-02  -5.1693440e-02  -7.6418717e-03   4.2317143e-02  -1.0486106e-01  -4.5021142e-05   5.0970624e-02   2.4196506e-02   1.9779221e-01  -3.8150836e-02   3.8765875e-02   3.4369575e-01   1.1933710e-01   2.9636843e-02   2.1297099e-02  -1.0050044e-01  -1.7708042e-01  -1.2609235e-01
   1.6226106e-02   1.1520981e-02   1.0151216e-02   1.5899955e-02   1.2252967e-02  -1.0185957e-01   4.6750784e-02  -1.0386645e-02  -3.0028823e-03   1.1217934e-01  -3.2820162e-02  -8.9001325e-02   5.6672818e-03   8.4498280e-02  -6.3393349e-03   3.4745454e-01  -1.2418167e-01  -2.0397403e-01   7.6679517e-02   1.6241555e-01  -2.9810194e-01
   6.7017367e-03  -1.0077624e-03  -4.3652622e-04   2.6880882e-03  -8.3585014e-03   1.1727364e-01  -8.0626819e-03  -1.6624911e-01   3.2975331e-02   1.4603523e-02   3.5324939e-02  -5.8557012e-02  -2.5359372e-02  -6.8730126e-02  -1.5715031e-01  -7.7598830e-02  -1.3552560e-01   9.8546280e-02  -5.3454873e-02   7.2062569e-02  -1.4304431e-01
  -3.8824267e-03  -2.3980380e-04   1.5126535e-04   2.7283104e-03  -1.7824438e-02  -6.2186049e-02   2.4850679e-02   1.0136379e-01   6.0301112e-03   4.4154815e-02  -1.9657862e-02   2.3596977e-02  -4.5761408e-02   1.7678857e-02   5.5781762e-02   1.0764486e-01   6.1395099e-02   9.3259377e-02  -6.5575374e-02   8.5969213e-03   1.2300647e-01
  -1.7467322e-03  -6.7716240e-04   7.5336758e-04  -9.5174961e-03  -1.6997593e-02   5.4402511e-02   5.6494550e-02   2.9485783e-02   1.2364405e-02  -9.2654041e-02   9.3228647e-02   9.3365888e-02  -2.4771601e-03   1.2415466e-01  -1.4334589e-01  -3.3102188e-02  -1.4681667e-01   3.7257906e-02  -1.2926226e-01  -5.3169977e-02  -1.6870659e-01
  -1.5374323e-03  -8.7985804e-04  -3.1940581e-04  -5.2786478e-03   1.0174557e-02   1.3201573e-02  -6.5018424e-03   1.3689089e-02   1.0989014e-02   1.3001648e-02  -2.6240953e-03  -6.3100931e-03  -1.5455467e-02  -3.6077596e-02   3.2934773e-02  -3.2647176e-02   2.3861357e-02   2.5725521e-02   7.1052250e-03   9.2028911e-03  -5.8929508e-02
   1.9116921e-03  -1.1406888e-02  -1.8218794e-02   2.4504176e-02   3.2973361e-02  -6.4857867e-02   5.3567191e-03  -4.8685201e-02   9.0552628e-02   7.9311019e-02   4.5778770e-02  -1.2004137e-01   2.6149576e-02  -8.1412725e-02   6.9737084e-03  -5.4825105e-02  -5.2473480e-02  -1.9035795e-01   2.7245705e-01  -4.5897069e-01  -5.1884430e-02
  -4.9434569e-04  -1.0080684e-04  -1.7629901e-03  -2.9834282e-03   6.6881160e-03   7.7945356e-04  -2.7937737e-02   2.9716588e-02   2.1897916e-02   4.4413513e-03  -1.7883072e-02  -2.6108702e-02   2.7921394e-03   4.5160934e-02   3.7495253e-02  -6.7823921e-03   2.9230345e-02  -4.6506908e-02   4.4305104e-02   2.5660761e-02   6.1787749e-03
  -3.5329406e-03  -1.8125295e-03  -6.4718686e-03  -2.5700371e-03   2.6039738e-02  -9.7601989e-02   1.4305748e-02   1.5866044e-01   2.0441965e-02  -1.6277373e-02   5.2589510e-02   7.6229784e-02   3.9169328e-02   1.6522839e-01   4.6350456e-02  -1.0570968e-01   1.0682770e-01   2.1875323e-02   1.0739965e-02  -7.1142276e-02  -2.8057239e-02
   1.9489114e-02   7.3261934e-03  -9.2269233e-03   1.6581384e-02  -3.6742757e-03   1.6107773e-02   1.1375334e-02  -1.2813850e-01   3.9088007e-02   4.5502533e-02  -7.9884083e-02   1.7973393e-01  -1.1578503e-03   4.5310467e-02   3.8535635e-01   3.9486822e-01   2.3385746e-01  -2.6440127e-01  -1.6901109e-01  -3.1947059e-01   2.1056663e-02
   2.0666729e-03   1.7763940e-03  -1.2918358e-02  -2.3863025e-02  -4.9369184e-02   3.3216126e-03   4.2366027e-02  -1.1435146e-01   4.5015935e-03   3.8377549e-02   1.7482826e-02   2.1801822e-01  -5.7491067e-02   5.6076348e-02   3.7824024e-01   1.0073769e-01   8.7880651e-02  -1.7801994e-02  -1.7347732e-01  -2.2364728e-01  -9.3982958e-02
   1.3875593e-02   1.2038818e-02   1.0975028e-02   2.9541176e-02   1.6310895e-02  -8.8703816e-02   7.0433987e-02  -9.5383607e-03  -3.3222942e-02   4.3032833e-02  -5.6139535e-02  -1.0492605e-01  -1.7870303e-03   9.0819630e-02  -1.6633693e-02   4.5100867e-01  -2.0915181e-01  -2.3440225e-01   1.0935867e-01   1.8854513e-01  -2.6120684e-01
   5.2128753e-03   8.7631135e-04   7.0984373e-04   1.1447417e-02  -3.5631910e-02   1.2225453e-01  -2.5501480e-03  -1.6471102e-01   2.9601748e-02   1.3234016e-02   1.0619930e-02  -1.2592116e-01  -9.2898590e-02  -8.6104211e-02  -1.7940864e-01   3.7075273e-02  -2.0184902e-01   1.2515132e-01  -9.2002058e-02   1.3839424e-01  -1.2953038e-01
  -5.9415360e-03  -2.5831912e-03   6.2877479e-03   7.4885086e-03   4.5830715e-03  -7.6700593e-02   3.1304882e-02   7.4566741e-02   5.6744991e-02   8.9205010e-02   8.1519858e-03  -2.4335911e-02  -4.4587265e-02   4.4541351e-03   4.5355838e-02   1.1241474e-01   1.3627965e-01   4.5942685e-03  -1.1782917e-01  -1.7319227e-02   2.5528584e-01
  -1.3857042e-03   5.6610921e-04  -8.8167072e-05  -6.7031716e-03  -2.1505787e-02   5.0835560e-02   5.9853628e-02   2.1505108e-02   1.0694242e-02  -1.0056895e-01   1.0697126e-01   9.5268858e-02  -4.7580357e-03   1.1496710e-01  -1.3619597e-01  -3.9822052e-02  -1.7388414e-01   4.9712842e-02  -1.0597774e-01  -6.0031051e-02  -1.4343800e-01
  -3.7188103e-03   3.2472629e-04   5.9879557e-04  -1.1795005e-02   2.5254188e-02   3.2343727e-02  -1.2511794e-02   3.9065515e-02   4.9368846e-03   7.1083402e-03  -1.4746594e-02  -2.2927968e-02  -5.4378537e-02  -1.2690414e-01   9.0610478e-02  -3.7043813e-02   1.0779018e-02   1.7736748e-02   1.2527797e-02  -2.2066108e-02  -1.1653561e-01
   1.3070397e-03  -1.2750419e-02  -1.8748015e-02   1.5627023e-02   4.3759709e-02  -1.4000039e-02   9.7072964e-03  -2.1286258e-02   6.6506599e-02   9.3468814e-02   4.0206321e-02  -6.2956663e-02   3.4438372e-02  -3.3898183e-02  -7.8884382e-02   6.6386108e-04  -6.0932607e-02  -1.9531696e-01   1.5923044e-01  -3.3764116e-01  -8.3909746e-02
  -7.2187319e-04  -1.5903224e-04  -2.0780429e-03  -2.1743696e-03   1.8344602e-02   4.0417089e-03  -4.5257550e-02   5.8461977e-02   5.8815670e-02   1.1894139e-02  -3.9475009e-02  -6.2794082e-02   3.1851134e-02   1.2173983e-01   5.9018809e-02   2.2507860e-02   2.4672147e-02  -7.4389723e-02   6.4735092e-02   5.8992731e-02   6.4628584e-02
  -4.4245825e-03  -2.6959743e-03  -6.6442871e-03  -3.1879500e-03   7.9891699e-03  -1.3055525e-01   8.1800622e-03   2.0488521e-01   7.8821250e-03   9.0234335e-03   4.7148378e-02   1.0265667e-01   5.8393321e-03   1.4347836e-01   8.6519264e-02  -8.9836757e-02   1.4970140e-01   9.2326058e-02   4.6938985e-02  -8.9831471e-02   2.9095526e-02
   2.3182415e-02   8.7617981e-03  -8.1768301e-03   1.4651696e-02  -1.1220413e-02  -4.1929012e-03   1.3338912e-02  -1.3634897e-01   3.1708762e-02   7.0103608e-02  -8.3944188e-02   1.9458984e-01  -1.1258307e-02   7.8783048e-02   4.0082179e-01   4.5220084e-01   2.6235113e-01  -2.8490467e-01  -1.8038379e-01  -2.9965298e-01  -1.2389647e-01
   8.8444002e-04   1.5968768e-04  -1.5040658e-02  -2.2832682e-02  -4.6741155e-02   2.1274355e-02   3.9781518e-02  -1.2666678e-01   9.5695987e-03   2.0349496e-02   5.4196331e-03   2.4614408e-01  -7.4524833e-02   7.2484331e-02   4.1942482e-01   8.9625761e-02   1.6649628e-01  -6.7103357e-02  -2.6250501e-01  -2.9033596e-01  -5.6023618e-02
   1.1104769e-02   1.2081771e-02   1.1302875e-02   3.9304402e-02   1.5754137e-02  -6.9687636e-02   8.6661813e-02  -3.4040494e-03  -6.1166298e-02  -2.4350172e-02  -7.2433150e-02  -1.2205824e-01  -1.2787337e-02   8.8703874e-02  -2.9563859e-02   5.3567425e-01  -2.7937881e-01  -2.4278476e-01   1.3794279e-01   2.0611783e-01  -2.1205806e-01
   3.4547220e-03   2.2330172e-03   2.0942481e-03   1.9417417e-02  -5.2018913e-02   1.2010972e-01   3.5719534e-03  -1.5579006e-01   2.3446300e-02   1.6371002e-03  -1.8474830e-02  -1.7485275e-01  -1.3757189e-01  -9.5724744e-02  -1.8752078e-01   1.4689213e-01  -2.4247387e-01   1.1997966e-01  -1.1592107e-01   1.8689177e-01  -1.0630607e-01
  -7.1513677e-03  -4.4508106e-03   1.1484800e-02   9.0682333e-03   2.4261887e-02  -8.9042479e-02   3.2024889e-02   4.9788161e-02   1.0079306e-01   1.2519078e-01   3.7441773e-02  -6.2137609e-02  -3.0340300e-02  -7.8370050e-04   4.6387759e-02   9.5713203e-02   2.1376865e-01  -7.8415031e-02  -1.5517986e-01  -5.2018117e-02   3.6037359e-01
  -9.1887155e-04   2.2614729e-03  -1.2020521e-03  -3.5546984e-03  -2.4613549e-02   3.9183947e-02   5.2923050e-02   1.0200410e-02   8.1238699e-03  -1.0178244e-01   1.1024261e-01   8.7800438e-02  -2.6199606e-03   9.4163119e-02  -1.1227764e-01  -5.1637626e-02  -1.8627040e-01   6.1599212e-02  -6.9421844e-02  -6.6072832e-02  -1.1163624e-01
  -5.3882536e-03   1.4141550e-03   1.6458087e-03  -1.6428450e-02   3.6651869e-02   4.7058059e-02  -1.7245843e-02   6.0171103e-02   5.2561772e-05   1.9787918e-03  -2.6206169e-02  -4.0630804e-02  -8.5581380e-02  -2.0115967e-01   1.3254037e-01  -3.3368791e-02  -4.1883932e-03   1.2686848e-02   1.7959962e-02  -5.3296049e-02  -1.5955536e-01
   7.1618398e-04  -1.4648492e-02  -1.9165989e-02   4.5823709e-03   5.7198358e-02   4.8366556e-02   1.2184225e-02   1.4753462e-02   3.3501460e-02   1.1014139e-01   3.0801205e-02   7.8383280e-03   4.0732645e-02   2.8401618e-02  -1.7581645e-01   6.8865836e-02  -5.6948772e-02  -1.9381891e-01   2.1790263e-02  -1.7219848e-01  -1.0857839e-01
  -1.0375758e-03  -1.4733038e-04  -2.3401834e-03  -1.1429367e-03   2.6797165e-02   6.9397784e-03  -5.7497287e-02   8.0335626e-02   8.3558510e-02   1.6555218e-02  -5.9579697e-02  -9.1399062e-02   5.5954098e-02   1.7778789e-01   7.3763237e-02   4.9056403e-02   1.7337118e-02  -9.9144015e-02   7.3211563e-02   8.9704400e-02   1.2410664e-01
  -6.0436991e-03  -3.2564701e-03  -5.5530842e-03  -3.4126601e-03  -1.4953381e-02  -1.7243157e-01   4.3708111e-03   2.6239459e-01  -1.0585242e-02   3.5823369e-02   3.0726258e-02   1.2622971e-01  -3.8279372e-02   1.1658403e-01   1.3896355e-01  -4.0043455e-02   1.8527371e-01   1.6230850e-01   9.1134663e-02  -1.1198448e-01   1.0817935e-01
   2.7758101e-02   1.0370302e-02  -6.8599697e-03   1.0387353e-02  -1.9872398e-02  -3.1778820e-02   1.3891590e-02  -1.4640709e-01   2.6333624e-02   1.1029206e-01  -8.1749263e-02   2.1318659e-01  -2.6408031e-02   1.2075029e-01   4.2214507e-01   5.0827320e-01   3.0417969e-01  -3.0844531e-01  -1.9916008e-01  -2.7679076e-01  -3.0593763e-01
  -7.5728733e-04  -2.0783186e-03  -1.7627337e-02  -2.1368917e-02  -4.4126779e-02   4.7258215e-02   3.3727315e-02  -1.4149705e-01   1.5659174e-02  -3.3101552e-03  -1.1837453e-02   2.8256940e-01  -8.8861962e-02   8.6566823e-02   4.6693762e-01   8.4991950e-02   2.6765888e-01  -1.2608428e-01  -3.6895101e-01  -3.7944388e-01  -1.0014357e-02
   8.2112926e-03   1.1199469e-02   1.0567182e-02   3.9894173e-02   9.3340293e-03  -4.9000051e-02   8.8614161e-02   9.2142395e-03  -7.5636515e-02  -6.6497189e-02  -7.0663603e-02  -1.3204002e-01  -2.6319580e-02   7.6144956e-02  -4.2502877e-02   5.5767966e-01  -3.0637511e-01  -2.0812917e-01   1.4853398e-01   2.0795723e-01  -1.6269902e-01
   1.8649068e-03   2.6508722e-03   3.0759861e-03   2.4126816e-02  -4.9590686e-02   1.0743359e-01   8.0254750e-03  -1.3738276e-01   1.3444864e-02  -2.0986897e-02  -4.8671334e-02  -1.8372320e-01  -1.3779434e-01  -9.0224845e-02  -1.7401852e-01   2.1698178e-01  -2.3998076e-01   7.4748706e-02  -1.1258791e-01   2.0272118e-01  -8.1025394e-02
  -6.8383923e-03  -5.0062328e-03   1.3757368e-02   6.4677167e-03   3.2495801e-02  -9.2147570e-02   2.4698774e-02   3.3279200e-02   1.2183590e-01   1.3816213e-01   6.0054090e-02  -7.6887767e-02  -8.8954690e-03   2.4855700e-03   5.9258134e-02   5.8858932e-02   2.6812303e-01  -1.2237715e-01  -1.6376673e-01  -8.3754766e-02   3.9434912e-01
  -6.9633954e-06   4.3666451e-03  -1.6457810e-03  -9.7538355e-05  -2.5981174e-02   1.3047029e-02   2.2991735e-02  -6.0414128e-03   5.4039016e-04  -8.8873234e-02   7.9261473e-02   6.3086028e-02   8.5473404e-03   4.9797530e-02  -6.6493918e-02  -6.3666839e-02  -1.6656228e-01   7.0875411e-02  -1.4857882e-02  -5.8437442e-02  -6.6461878e-02
  -5.8540657e-03   2.0279869e-03   2.6185107e-03  -1.7115183e-02   3.9780653e-02   5.1287951e-02  -1.8623443e-02   6.9129038e-02  -2.0399516e-03  -1.0601597e-03  -3.3428333e-02  -5.3185148e-02  -9.4797550e-02  -2.2932212e-01   1.4071777e-01  -1.9855641e-02  -1.6443658e-02   1.4287237e-02   2.2226700e-02  -7.3219810e-02  -1.6811186e-01
   2.0933560e-04  -1.7177069e-02  -1.9155107e-02  -8.7749918e-03   7.3451010e-02   1.2151840e-01   1.0065527e-02   6.0030734e-02  -9.6943571e-03   1.3152497e-01   1.3123681e-02   9.1593075e-02   4.5476368e-02   1.0426377e-01  -2.8336584e-01   1.5287284e-01  -3.4482802e-02  -1.8491311e-01  -1.3964143e-01   4.3263426e-02  -1.2017597e-01
  -1.3956850e-03  -1.3098754e-04  -2.3392270e-03  -1.0442549e-04   2.8247794e-02   8.4223584e-03  -5.8554149e-02   8.6021855e-02   8.4986682e-02   1.6275541e-02  -7.1115039e-02  -1.0083479e-01   6.4435081e-02   1.8929017e-01   7.3901497e-02   6.5030964e-02   9.2380715e-03  -1.0932368e-01   6.1242671e-02   1.0595317e-01   1.6929481e-01
  -8.5701748e-03  -3.5940079e-03  -2.8607628e-03  -3.2957254e-03  -4.0545987e-02  -2.2503233e-01   3.9194531e-03   3.3238003e-01  -3.3753878e-02   6.3138024e-02   2.9429299e-03   1.4762697e-01  -8.9081888e-02   8.6615097e-02   2.0595914e-01   4.7222952e-02   2.1733050e-01   2.2398876e-01   1.4496801e-01  -1.4233283e-01   2.1564157e-01
   3.3281218e-02   1.2169056e-02  -5.1856415e-03   4.1724115e-03  -2.8765347e-02  -6.7510955e-02   1.4076797e-02  -1.5884531e-01   2.2574237e-02   1.6616669e-01  -7.2824810e-02   2.3531142e-01  -4.6192920e-02   1.7191508e-01   4.4905230e-01   5.6442366e-01   3.5788493e-01  -3.3859352e-01  -2.2421918e-01  -2.5054808e-01  -5.2608986e-01
  -2.9307065e-03  -4.9998391e-03  -2.0709003e-02  -2.0073061e-02  -4.1893533e-02   8.1861215e-02   2.2991494e-02  -1.5830547e-01   2.4008781e-02  -3.1207769e-02  -3.3186816e-02   3.2800320e-01  -1.0005146e-01   9.6871281e-02   5.2042935e-01   8.2602623e-02   3.9467174e-01  -1.9241575e-01  -4.9456539e-01  -4.9310112e-01   4.5994569e-02
   5.6768365e-03   8.9336792e-03   7.8881765e-03   2.5226229e-02  -3.4140125e-03  -3.2472252e-02   6.8781630e-02   2.9104198e-02  -6.2853809e-02  -5.3570615e-02  -3.7223890e-02  -1.2240376e-01  -3.9875466e-02   5.2726417e-02  -5.0265500e-02   4.6032535e-01  -2.5662812e-01  -1.0476744e-01   1.2451011e-01   1.8581752e-01  -1.3182290e-01
   1.0256157e-03   1.7406934e-03   2.7005633e-03   2.2757862e-02  -2.0347795e-02   8.0962271e-02   8.0548652e-03  -1.0791863e-01  -2.0992060e-03  -5.4636913e-02  -7.6232511e-02  -1.2782620e-01  -7.0599568e-02  -6.1416759e-02  -1.3161605e-01   2.0452043e-01  -1.7913777e-01  -1.6169996e-02  -6.7336321e-02   1.7235379e-01  -6.6413507e-02
