   1.9306957e-02  -1.8534098e-02
  -7.3896482e-03  -4.7263336e-02
  -1.6015368e-02  -8.5189680e-03
   1.1682617e-02   7.4023658e-03
  -2.0983112e-02  -5.5566654e-02
   8.5599408e-02  -3.8151429e-02
   1.6580926e-01  -2.3358008e-01
  -5.4619431e-02   1.8109065e-03
  -8.4516121e-02  -9.2996310e-02
   6.5364591e-02  -1.3427478e-01
   1.4508800e-02  -5.0009953e-03
  -3.7205541e-03  -3.3052716e-02
  -4.0482282e-03   3.4573831e-03
   5.2174714e-04   2.7936575e-03
   3.5355669e-03  -1.2911825e-02
   2.3379889e-02  -1.5552682e-02
   1.1086497e-01  -1.4742103e-01
  -3.4585646e-02  -6.6893043e-03
  -5.6803311e-02  -5.7613190e-02
   4.2228396e-02  -8.1548963e-02
   1.0018336e-02   5.8431110e-03
  -3.0624651e-04  -2.1946580e-02
   4.0375821e-03   8.3739158e-03
  -4.0129225e-03   1.5935702e-03
   1.2913979e-02   1.0184373e-02
  -1.2327872e-02   5.8747219e-04
   6.5103951e-02  -7.5680290e-02
  -1.8896473e-02  -1.2325411e-02
  -3.4306591e-02  -3.1125452e-02
   2.4041470e-02  -4.1334688e-02
   5.5775551e-03   1.3716686e-02
   2.5286429e-03  -1.3709151e-02
   8.5665409e-03   8.4116668e-03
  -4.3074187e-03   2.1321573e-03
   1.2273797e-02   1.8787887e-02
  -2.7775125e-02   1.0535195e-02
   2.8529763e-02  -1.8690917e-02
  -7.0634852e-03  -1.5797783e-02
  -1.6882514e-02  -1.2452506e-02
   1.0514396e-02  -1.2275664e-02
   1.1561690e-03   1.8639309e-02
   4.6023974e-03  -7.9832685e-03
   1.0081766e-02   5.5551736e-03
  -2.4388564e-03   3.2542823e-03
   6.4783670e-03   1.7966270e-02
  -2.9280570e-02   1.5044692e-02
   8.2717436e-04   2.3835766e-02
   1.4235168e-03  -1.7679951e-02
  -4.1926766e-03  -3.8152960e-04
   1.2122943e-03   7.1735330e-03
  -3.0818924e-03   2.0897900e-02
   5.8512574e-03  -4.3375589e-03
   9.2676786e-03   1.4513926e-03
   8.3166862e-06   4.2836702e-03
  -5.1835017e-04   1.2189495e-02
  -2.2584986e-02   1.5264986e-02
  -1.8629744e-02   5.2792756e-02
   7.0443418e-03  -1.8375703e-02
   4.2529197e-03   6.3560854e-03
  -4.4256681e-03   1.8671001e-02
  -6.8530382e-03   2.0974759e-02
   6.3009834e-03  -2.3106031e-03
   6.8760360e-03  -2.6688767e-03
   2.0111476e-03   4.9294312e-03
  -6.0335922e-03   4.9666429e-03
  -1.2392147e-02   1.2566581e-02
  -3.0734503e-02   6.9600949e-02
   1.0233011e-02  -1.8115642e-02
   9.0590606e-03   9.0183402e-03
  -7.0470738e-03   2.3905731e-02
  -9.8439315e-03   1.9460184e-02
   6.0391634e-03  -1.4490839e-03
   3.6529566e-03  -6.0093898e-03
   3.0773010e-03   5.1641111e-03
  -8.7329067e-03  -1.3033070e-03
  -2.1244928e-03   8.3399089e-03
  -3.6577199e-02   7.6077858e-02
   1.1390325e-02  -1.7003011e-02
   1.0909358e-02   8.7915874e-03
  -7.3366476e-03   2.4509427e-02
  -1.1794489e-02   1.6967497e-02
   5.1913475e-03  -1.3376825e-03
   2.7035608e-04  -8.1744540e-03
   3.1412543e-03   5.1017903e-03
  -8.4672947e-03  -5.3052893e-03
   6.1091349e-03   3.8113720e-03
  -3.7357603e-02   7.4271456e-02
   1.0910494e-02  -1.5094252e-02
   1.0527555e-02   6.7360074e-03
  -5.9655198e-03   2.1969263e-02
  -1.2557995e-02   1.4062355e-02
   3.9024572e-03  -1.6194997e-03
  -2.7297204e-03  -9.0954992e-03
   2.4213273e-03   4.8988397e-03
  -5.9442485e-03  -6.6533336e-03
   1.1368107e-02  -9.0422946e-05
  -3.4296611e-02   6.6288369e-02
   9.2058919e-03  -1.2483750e-02
   8.6353023e-03   3.7426641e-03
  -3.5474286e-03   1.7554074e-02
  -1.2129737e-02   1.1212565e-02
   2.3234969e-03  -2.0069035e-03
  -4.9705923e-03  -8.9353335e-03
   1.2716352e-03   4.6897014e-03
  -2.3206529e-03  -5.6561313e-03
   1.3613988e-02  -2.8020677e-03
  -2.8559329e-02   5.4145488e-02
   6.7164244e-03  -9.3597444e-03
   5.9083631e-03   5.0789166e-04
  -6.0778580e-04   1.2266712e-02
  -1.0643064e-02   8.7598519e-03
   6.0265546e-04  -2.2837698e-03
  -6.2538291e-03  -7.9883271e-03
   5.6371670e-05   4.5582835e-03
   1.1942332e-03  -3.0500698e-03
   1.3389967e-02  -4.1258113e-03
  -2.1198951e-02   3.9664864e-02
   3.8961510e-03  -6.0097585e-03
   2.9350024e-03  -2.4716201e-03
   2.4314574e-03   6.8305709e-03
  -8.3385917e-03   6.9116593e-03
  -1.1205858e-03  -2.3009643e-03
  -6.5506029e-03  -6.5920828e-03
  -9.3724821e-04   4.5360845e-03
   3.6512651e-03   2.5884035e-04
   1.1509142e-02  -4.1744109e-03
  -1.3124608e-02   2.4417257e-02
   1.1779276e-03  -2.7738246e-03
   1.8101247e-04  -4.8838586e-03
   5.2517566e-03   1.7105394e-03
  -5.5168679e-03   5.7488564e-03
  -2.7196881e-03  -1.9674569e-03
  -5.9752795e-03  -5.0605219e-03
  -1.5420520e-03   4.6138422e-03
   4.5430527e-03   3.4117017e-03
   8.8022031e-03  -3.2790384e-03
  -5.0903475e-03   9.7053247e-03
  -1.0750424e-03   3.5647058e-05
  -2.0340030e-03  -6.5716737e-03
   7.6265742e-03  -2.8394972e-03
  -2.4865638e-03   5.2443614e-03
  -4.0848199e-03  -1.2395336e-03
  -4.7465655e-03  -3.6418970e-03
  -1.7133582e-03   4.7549824e-03
   3.8439992e-03   5.7506734e-03
   5.9533147e-03  -1.8813497e-03
   2.3018654e-03  -3.4316505e-03
  -2.6163383e-03   2.2154117e-03
  -3.5449424e-03  -7.4959207e-03
   9.4045365e-03  -6.7161234e-03
   4.8046556e-04   5.2879166e-03
  -5.1269369e-03  -1.1014902e-04
  -3.1425281e-03  -2.5002260e-03
  -1.5015536e-03   4.9047782e-03
   1.9305116e-03   6.9004202e-03
   3.4290924e-03  -4.2904532e-04
   8.5936998e-03  -1.4210398e-02
  -3.3467959e-03   3.7217797e-03
  -4.3315658e-03  -7.6997586e-03
   1.0493380e-02  -9.9076126e-03
   3.1789734e-03   5.7131205e-03
  -5.7821305e-03   1.4002262e-03
  -1.4573782e-03  -1.7155289e-03
  -1.0105478e-03   4.9956798e-03
  -5.7558233e-04   6.7794205e-03
   1.4853631e-03   7.0983963e-04
   1.3463536e-02  -2.2105603e-02
  -3.3171549e-03   4.6694177e-03
  -4.4911406e-03  -7.2801248e-03
   1.0849326e-02  -1.2448278e-02
   5.4812761e-03   6.3237351e-03
  -6.0155251e-03   3.2505662e-03
   3.3535001e-05  -1.2964334e-03
  -3.5812902e-04   4.9532826e-03
  -2.9900819e-03   5.5551124e-03
   2.2337344e-04   1.3033530e-03
   1.6723876e-02  -2.6861680e-02
  -2.7000544e-03   5.2782098e-03
  -4.1970890e-03  -6.3684607e-03
   1.0473543e-02  -1.4390692e-02
   7.3305173e-03   6.9171921e-03
  -5.8237848e-03   5.3838930e-03
   1.0981931e-03  -1.1983605e-03
   3.4994371e-04   4.7076511e-03
  -4.7306325e-03   3.5652889e-03
  -3.3698049e-04   1.2771883e-03
   1.8320980e-02  -2.8504178e-02
  -1.7384874e-03   5.7877576e-03
  -3.6504531e-03  -5.1187229e-03
   9.4140618e-03  -1.5793450e-02
   8.7213843e-03   7.3042887e-03
  -5.2351814e-03   7.7297798e-03
   1.5627587e-03  -1.3419523e-03
   1.0274964e-03   4.2120735e-03
  -5.4302567e-03   1.2302330e-03
  -1.9644066e-04   7.0162992e-04
   1.8331168e-02  -2.7334984e-02
  -6.8535314e-04   6.3711381e-03
  -3.0326425e-03  -3.6982573e-03
   7.7690977e-03  -1.6717492e-02
   9.6756109e-03   7.3250688e-03
  -4.3065628e-03   1.0205278e-02
   1.3202106e-03  -1.6290757e-03
   1.6003456e-03   3.4666092e-03
  -4.9850956e-03  -1.0244913e-03
   6.5177852e-04  -2.4970001e-04
   1.6947737e-02  -2.3897367e-02
   2.4894934e-04   7.0794231e-03
  -2.4676613e-03  -2.2770197e-03
   5.6868079e-03  -1.7223094e-02
   1.0219618e-02   6.8614925e-03
  -3.1174070e-03   1.2714898e-02
   3.3709788e-04  -1.9563735e-03
   1.9928478e-03   2.5383799e-03
  -3.5388461e-03  -2.8239345e-03
   2.2117390e-03  -1.3576849e-03
   1.4454796e-02  -1.8905471e-02
   9.2730410e-04   7.8365382e-03
  -1.9999978e-03  -1.0126691e-03
   3.3575848e-03  -1.7362457e-02
   1.0370054e-02   5.8476623e-03
  -1.7618097e-03   1.5150335e-02
  -1.3391028e-03  -2.2276124e-03
   2.1197412e-03   1.5673301e-03
  -1.4209486e-03  -3.8785060e-03
   4.4437146e-03  -2.4173990e-03
   1.1188773e-02  -1.3145025e-02
   1.2890873e-03   8.4848238e-03
  -1.5912592e-03  -3.2323927e-05
   9.9737730e-04  -1.7167771e-02
   1.0130385e-02   4.2780598e-03
  -3.3967582e-04   1.7390640e-02
  -3.5718919e-03  -2.3655535e-03
   1.8915852e-03   7.4784736e-04
   9.3838272e-04  -4.0059420e-03
   7.2092122e-03  -3.2846313e-03
   7.4931702e-03  -7.3630351e-03
   1.3292862e-03   8.8624382e-03
  -1.1351161e-03   5.8518041e-04
  -1.1766015e-03  -1.6639646e-02
   9.4986200e-03   2.2136192e-03
   1.0514642e-03   1.9303642e-02
  -6.1292172e-03  -2.3227066e-03
   1.2373058e-03   2.8362967e-04
   3.0951896e-03  -3.1513591e-03
   1.0223340e-02  -3.8974868e-03
   3.6757975e-03  -2.1697067e-03
   1.0650916e-03   8.8818031e-03
  -4.8692518e-04   8.2112941e-04
  -2.9738478e-03  -1.5743455e-02
   8.4835216e-03  -2.1505154e-04
   2.3226284e-03   2.0749467e-02
  -8.6841434e-03  -2.0893813e-03
   1.4107611e-04   3.2325346e-04
   4.6659267e-03  -1.4126204e-03
   1.3035474e-02  -4.2677608e-03
  -2.1324562e-05   2.0263088e-03
   5.0545347e-04   8.5779657e-03
   4.9776728e-04   7.1799476e-04
  -4.2566932e-03  -1.4420358e-02
   7.1246841e-03  -2.8081833e-03
   3.3965367e-03   2.1587039e-02
  -1.0830695e-02  -1.6972179e-03
  -1.3173712e-03   8.9330884e-04
   5.3803390e-03   9.3054680e-04
   1.5054515e-02  -4.4453239e-03
  -3.4314291e-03   5.0374058e-03
  -3.6231635e-04   8.1069966e-03
   1.9224968e-03   3.6733762e-04
  -4.9591696e-03  -1.2615535e-02
   5.5111239e-03  -5.3019241e-03
   4.2073772e-03   2.1684281e-02
  -1.2122340e-02  -1.2165645e-03
  -2.9356071e-03   1.8511289e-03
   5.1100652e-03   3.3974664e-03
   1.5627272e-02  -4.4678361e-03
  -6.4490310e-03   6.8721450e-03
  -1.5611720e-03   7.6930847e-03
   3.8128749e-03  -1.1407686e-04
  -5.0951977e-03  -1.0319937e-02
   3.7937421e-03  -7.3785473e-03
   4.6975246e-03   2.0932211e-02
  -1.2137592e-02  -7.4640751e-04
  -4.3914996e-03   2.8779487e-03
   3.8745540e-03   5.3227263e-03
   1.4168070e-02  -4.3154220e-03
  -8.9962035e-03   7.6789663e-03
  -3.0899038e-03   7.5418185e-03
   6.0874703e-03  -6.1476259e-04
  -4.7556253e-03  -7.6159000e-03
   2.1884451e-03  -8.6815499e-03
   4.8124164e-03   1.9262226e-02
  -1.0571622e-02  -3.9630074e-04
  -5.2874943e-03   3.5261812e-03
   1.8295482e-03   5.9362636e-03
   1.0325774e-02  -3.8918838e-03
  -1.0978284e-02   7.6785384e-03
  -4.8762837e-03   7.7490421e-03
   8.5388386e-03  -1.0581636e-03
  -4.0964216e-03  -4.7140210e-03
   9.6885149e-04  -8.8339841e-03
   4.4955047e-03   1.6664838e-02
  -7.3466580e-03  -2.6110580e-04
  -5.2372710e-03   3.3229188e-03
  -7.5443677e-04   4.5257792e-03
   4.1635618e-03  -3.0483717e-03
  -1.2240797e-02   7.1047150e-03
  -6.7332543e-03   8.2353761e-03
   1.0825540e-02  -1.4243558e-03
  -3.3222016e-03  -1.9699514e-03
   4.4951720e-04  -7.4570987e-03
   3.6853497e-03   1.3207122e-02
  -2.7273804e-03  -3.9062737e-04
  -3.9854282e-03   1.9175364e-03
  -3.5152714e-03   6.7883112e-04
  -3.6800170e-03  -1.6537404e-03
  -1.2538512e-02   6.1674624e-03
  -8.3330205e-03   8.7264836e-03
   1.2475300e-02  -1.7591534e-03
  -2.6697125e-03   1.2509749e-04
   9.6217394e-04  -4.1859904e-03
   2.3165180e-03   9.0457779e-03
   2.5789098e-03  -7.5658721e-04
  -1.5408910e-03  -7.5241229e-04
  -6.0149554e-03  -5.4230268e-03
  -1.1881387e-02   2.9799525e-04
  -1.1523711e-02   5.0409616e-03
  -9.2085076e-03   8.7827674e-03
   1.2899453e-02  -2.1694850e-03
  -2.3948037e-03   9.7926937e-04
   2.8285830e-03   1.3204591e-03
   3.2526174e-04   4.4328876e-03
   7.3603075e-03  -1.2191665e-03
   1.7027046e-03  -4.3113685e-03
  -7.7395153e-03  -1.2708485e-02
  -1.8402602e-02   2.5653443e-03
  -8.7551427e-03   3.8702722e-03
  -8.7833374e-03   7.8654021e-03
   1.1419113e-02  -2.8074572e-03
  -2.7641666e-03  -4.7355041e-05
   6.3338161e-03   9.3770656e-03
  -2.3399227e-03  -2.8765674e-04
   9.8982036e-03  -1.4957848e-03
   4.8893731e-03  -7.8465407e-03
  -8.0767215e-03  -1.8985141e-02
  -2.0561288e-02   4.5533544e-03
  -3.7235308e-03   2.7839443e-03
  -6.4228656e-03   5.4141814e-03
   7.3035476e-03  -3.8482779e-03
  -4.0507224e-03  -3.5849049e-03
   1.1703347e-02   2.0277911e-02
  -5.7039053e-03  -4.6938037e-03
   8.0404286e-03  -1.1366673e-03
   6.6919853e-03  -9.8854176e-03
  -6.2689963e-03  -2.0842060e-02
  -1.5205005e-02   5.2575833e-03
   4.1145241e-03   1.8996536e-03
  -1.4927082e-03   9.1041551e-04
  -1.7932615e-04  -5.4685026e-03
  -6.5298221e-03  -1.0204017e-02
   1.9086571e-02   3.4309886e-02
  -9.7489198e-03  -8.3083121e-03
  -6.4638362e-04   4.8514749e-04
   5.3861749e-03  -8.4610853e-03
  -1.3443981e-03  -1.3744409e-02
   1.0210131e-03   3.2857403e-03
   1.5303628e-02   1.3149025e-03
   6.5904531e-03  -6.0947474e-03
  -1.1701667e-02  -7.8308131e-03
  -1.0472884e-02  -2.0384938e-02
   2.8548307e-02   5.1773610e-02
  -1.4399926e-02  -1.0628970e-02
  -1.8653749e-02   4.1586937e-03
  -9.9627730e-04  -1.2580259e-03
   7.9645382e-03   7.6465872e-03
   3.1340122e-02  -3.0291129e-03
   3.0365264e-02   1.0826048e-03
   1.8327786e-02  -1.5992991e-02
  -2.7806809e-02  -1.1080149e-02
  -1.6135926e-02  -3.4510586e-02
   4.0068512e-02   7.3010544e-02
  -1.9514538e-02  -1.1163280e-02
  -4.8256914e-02   1.0783487e-02
  -1.4453200e-02   1.4185879e-02
   2.3297160e-02   4.8930457e-02
   7.8484498e-02  -1.5428851e-02
   4.9785442e-02   1.1786290e-03
   3.4131824e-02  -2.9164719e-02
  -4.8838058e-02  -1.5353796e-02
  -2.3742456e-02  -5.2882165e-02
