   2.3087098e-02  -1.8965886e-02
  -1.1271169e-02   1.7452651e-02
  -2.1890396e-02   5.9910142e-02
  -5.1475349e-03   5.7125472e-02
  -3.6955109e-02   2.9891210e-02
  -8.7140101e-03   3.7157726e-02
   2.3006329e-02   7.5258291e-02
   1.1985676e-02   7.2475018e-02
  -6.0798287e-02  -4.5283595e-02
  -6.0098082e-02   5.5583905e-02
   1.6123100e-02  -1.8794004e-02
  -8.9051958e-03   1.7458852e-02
  -1.6404731e-02   4.4384205e-02
  -5.2285996e-05   3.3627542e-02
  -1.0024099e-02   1.2944426e-02
  -6.5841035e-03   1.6587139e-02
   2.7144911e-02   4.0858290e-02
   1.6500251e-02   4.2995387e-02
  -4.3684059e-02  -3.7842831e-02
  -3.7161881e-02   3.1722982e-02
   1.0942307e-02  -1.7363478e-02
  -7.0519567e-03   1.5773346e-02
  -1.1969058e-02   2.9639062e-02
   2.6178863e-03   1.5282158e-02
   7.0555777e-03   2.3379572e-03
  -4.1101080e-03   1.6648567e-03
   2.7465888e-02   1.6878705e-02
   1.8584591e-02   2.0075244e-02
  -3.0115887e-02  -2.9728057e-02
  -1.9642883e-02   1.4807821e-02
   7.0828801e-03  -1.4925756e-02
  -5.6851737e-03   1.2636053e-02
  -8.5694092e-03   1.6772609e-02
   3.2486168e-03   1.6964234e-03
   1.5972373e-02  -3.2196384e-03
  -1.8402858e-03  -7.9332849e-03
   2.5047788e-02   1.5854666e-03
   1.8638860e-02   3.1186259e-03
  -1.9702277e-02  -2.1697388e-02
  -7.0973768e-03   4.0706045e-03
   4.2081715e-03  -1.1951646e-02
  -4.7684856e-03   8.6703371e-03
  -6.1420176e-03   6.4621325e-03
   2.3225782e-03  -7.6793504e-03
   1.8723762e-02  -5.1464422e-03
  -1.5725395e-04  -1.2852046e-02
   2.0942853e-02  -6.8630591e-03
   1.7140227e-02  -8.6650825e-03
  -1.1992029e-02  -1.4419783e-02
   1.1347492e-03  -1.5096349e-03
   2.0790691e-03  -8.9402234e-03
  -4.2433695e-03   4.6026123e-03
  -4.5877686e-03  -9.9378472e-04
   3.5690883e-04  -1.3446769e-02
   1.7345809e-02  -4.7750244e-03
   7.4592399e-04  -1.4006781e-02
   1.6066291e-02  -1.0224235e-02
   1.4565410e-02  -1.6137749e-02
  -6.5229873e-03  -8.4016779e-03
   5.8336600e-03  -3.0743567e-03
   5.3549019e-04  -6.2996709e-03
  -4.0320457e-03   1.0731428e-03
  -3.7766223e-03  -5.6176382e-03
  -2.1484895e-03  -1.6192250e-02
   1.3689780e-02  -3.2303332e-03
   8.5801907e-04  -1.2462936e-02
   1.1137089e-02  -1.0060984e-02
   1.1340422e-02  -2.0152160e-02
  -2.8551488e-03  -3.9550557e-03
   7.8153125e-03  -1.7799011e-03
  -5.2240339e-04  -4.2917227e-03
  -4.0456248e-03  -1.4704115e-03
  -3.5497128e-03  -7.6847349e-03
  -4.7501870e-03  -1.6456118e-02
   9.2622857e-03  -1.3764813e-03
   3.1589766e-04  -9.2929974e-03
   6.6711453e-03  -7.6927331e-03
   7.8196011e-03  -2.1506508e-02
  -5.8814353e-04  -1.1977217e-03
   7.8645581e-03   1.2821764e-03
  -1.1581055e-03  -3.0237381e-03
  -4.1914111e-03  -2.8111954e-03
  -3.7244767e-03  -7.6480946e-03
  -7.0856920e-03  -1.4728453e-02
   5.1418109e-03   1.9114843e-04
  -6.4746909e-04  -5.4504521e-03
   3.0110546e-03  -4.1840212e-03
   4.2872760e-03  -2.0922085e-02
   6.3230450e-04  -7.4838026e-05
   6.6864665e-03   5.1428514e-03
  -1.4245411e-03  -2.4691006e-03
  -4.3803379e-03  -2.9533411e-03
  -4.1056849e-03  -6.0611532e-03
  -8.8834165e-03  -1.1458670e-02
   1.9736677e-03   1.1284858e-03
  -1.7615878e-03  -1.6829583e-03
   3.6726597e-04  -3.5041335e-04
   9.7008350e-04  -1.9032904e-02
   1.1119528e-03  -3.9156213e-04
   4.8736557e-03   8.9956592e-03
  -1.3824513e-03  -2.4985272e-03
  -4.5384089e-03  -2.0839166e-03
  -4.5024185e-03  -3.5048510e-03
  -9.9641770e-03  -7.0698683e-03
   2.7540218e-05   1.3078212e-03
  -2.7725671e-03   1.5071991e-03
  -1.1530648e-03   3.2291217e-03
  -1.9518354e-03  -1.6380194e-02
   1.1036342e-03  -1.8500772e-03
   2.8866457e-03   1.2221258e-02
  -1.1061348e-03  -2.9155680e-03
  -4.6202722e-03  -5.1829649e-04
  -4.7466808e-03  -5.2392680e-04
  -1.0240411e-02  -1.9714508e-03
  -7.0844668e-04   7.6881339e-04
  -3.4846505e-03   3.8582784e-03
  -1.5405583e-03   6.1942216e-03
  -4.3412654e-03  -1.3409717e-02
   7.9911489e-04  -4.0880797e-03
   1.0456942e-03   1.4397119e-02
  -6.7622483e-04  -3.4935414e-03
  -4.6182710e-03   1.3633273e-03
  -4.7101083e-03   2.4208951e-03
  -9.7136706e-03   3.4362562e-03
  -4.2322311e-04  -3.3765728e-04
  -3.7846625e-03   5.3113611e-03
  -8.9426286e-04   8.3763599e-03
  -6.1066919e-03  -1.0472396e-02
   3.2131261e-04  -6.7172291e-03
  -4.6537738e-04   1.5293023e-02
  -1.6386820e-04  -4.0097908e-03
  -4.5615177e-03   3.1794482e-03
  -4.3178112e-03   4.9778685e-03
  -8.4683288e-03   8.7657408e-03
   6.0888709e-04  -1.8067079e-03
  -3.6504913e-03   5.9526047e-03
   5.7141248e-04   9.7616949e-03
  -7.2047386e-03  -7.8288163e-03
  -2.7570425e-04  -9.3597981e-03
  -1.5824732e-03   1.4854131e-02
   3.8279033e-04  -4.2757265e-03
  -4.5029843e-03   4.6031481e-03
  -3.5564337e-03   6.9089879e-03
  -6.6593460e-03   1.3650656e-02
   2.0943838e-03  -3.4298520e-03
  -3.1451301e-03   5.9505018e-03
   2.5421559e-03   1.0445309e-02
  -7.6359703e-03  -5.6571424e-03
  -9.9352336e-04  -1.1681373e-02
  -2.3329563e-03   1.3174562e-02
   9.4057925e-04  -4.1601221e-03
  -4.4965030e-03   5.4062222e-03
  -2.4743959e-03   8.0823758e-03
  -4.4923326e-03   1.7757481e-02
   3.7622495e-03  -5.0298072e-03
  -2.3989263e-03   5.4997608e-03
   4.6475525e-03   1.0582864e-02
  -7.4326645e-03  -4.0624671e-03
  -1.8634417e-03  -1.3417081e-02
  -2.8004907e-03   1.0465252e-02
   1.4998398e-03  -3.6025725e-03
  -4.5693598e-03   5.4893379e-03
  -1.1739882e-03   8.4596485e-03
  -2.1955394e-03   2.0803111e-02
   5.3899127e-03  -6.4737760e-03
  -1.5838904e-03   4.7780321e-03
   6.5233795e-03   1.0348803e-02
  -6.6429171e-03  -3.0844257e-03
  -2.9142998e-03  -1.4388643e-02
  -3.0901583e-03   7.0199026e-03
   2.0452001e-03  -2.6161331e-03
  -4.7001333e-03   4.8943675e-03
   2.0330613e-04   8.0818715e-03
   1.3889275e-05   2.2580906e-02
   6.8214658e-03  -7.6657940e-03
  -8.8258102e-04   3.9201656e-03
   7.8717828e-03   9.9082920e-03
  -5.3188354e-03  -2.7011017e-03
  -4.1438315e-03  -1.4510490e-02
  -3.3011054e-03   3.1816164e-03
   2.5399135e-03  -1.2794401e-03
  -4.8124678e-03   3.7943669e-03
   1.4958239e-03   7.0544757e-03
   1.9625403e-03   2.2991305e-02
   7.9774357e-03  -8.5301806e-03
  -4.5604820e-04   3.0098875e-03
   8.4985305e-03   9.4028043e-03
  -3.5155430e-03  -2.8308512e-03
  -5.5025332e-03  -1.3786060e-02
  -3.5111959e-03  -6.8902744e-04
   2.9220271e-03   2.7656180e-04
  -4.7891483e-03   2.4622037e-03
   2.5443575e-03   5.5328495e-03
   3.5441562e-03   2.2068264e-02
   8.8521635e-03  -9.0002675e-03
  -4.1636248e-04   2.0850829e-03
   8.3176916e-03   8.9423968e-03
  -1.3022516e-03  -3.3368602e-03
  -6.8944681e-03  -1.2298218e-02
  -3.7735052e-03  -4.2448432e-03
   3.1151727e-03   1.8826045e-03
  -4.5024842e-03   1.2237360e-03
   3.2170921e-03   3.7098339e-03
   4.7300310e-03   1.9994283e-02
   9.4981166e-03  -9.0194258e-03
  -8.0598610e-04   1.1542144e-03
   7.3313952e-03   8.5975464e-03
   1.2208485e-03  -4.0387173e-03
  -8.1924542e-03  -1.0197531e-02
  -4.1200880e-03  -7.1816294e-03
   3.0511444e-03   3.3453862e-03
  -3.8526701e-03   4.0116293e-04
   3.4332134e-03   1.8042280e-03
   5.5663250e-03   1.7098372e-02
   9.9964278e-03  -8.5593224e-03
  -1.5866850e-03   2.1829075e-04
   5.6045851e-03   8.3886353e-03
   3.9107388e-03  -4.7318166e-03
  -9.2597770e-03  -7.6895778e-03
  -4.5666670e-03  -9.2646444e-03
   2.6929987e-03   4.4596889e-03
  -2.8047818e-03   2.5198775e-04
   3.1812794e-03   4.9526037e-05
   6.1593716e-03   1.3831509e-02
   1.0419496e-02  -7.6515053e-03
  -2.6394708e-03  -7.0711119e-04
   3.2529233e-03   8.2757343e-03
   6.5836133e-03  -5.2122354e-03
  -9.9702253e-03  -5.0201164e-03
  -5.1135820e-03  -1.0348994e-02
   2.0484022e-03   5.0183807e-03
  -1.4145377e-03   9.1382880e-04
   2.5282703e-03  -1.3188648e-03
   6.6514496e-03   1.0717444e-02
   1.0798851e-02  -6.4189871e-03
  -3.7756249e-03  -1.5741315e-03
   4.4917230e-04   8.1545066e-03
   9.0327098e-03  -5.3026424e-03
  -1.0222465e-02  -2.4560126e-03
  -5.7420840e-03  -1.0390934e-02
   1.1699647e-03   4.8238295e-03
   1.6577393e-04   2.3695858e-03
   1.6160072e-03  -2.0801629e-03
   7.1920536e-03   8.2841400e-03
   1.1110094e-02  -5.0929222e-03
  -4.7590175e-03  -2.2942245e-03
  -2.5612675e-03   7.8659148e-03
   1.1056249e-02  -4.8738203e-03
  -9.9502961e-03  -2.6049641e-04
  -6.4085462e-03  -9.4480163e-03
   1.4532844e-04   3.7041760e-03
   1.7037063e-03   4.4429192e-03
   6.4308330e-04  -2.0507599e-03
   7.9096311e-03   6.9859149e-03
   1.1278668e-02  -4.0033665e-03
  -5.3377390e-03  -2.7413414e-03
  -5.4538256e-03   7.2247383e-03
   1.2485118e-02  -3.8577499e-03
  -9.1336137e-03   1.3367812e-03
  -7.0407947e-03  -7.6680322e-03
  -9.1688206e-04   1.5375687e-03
   2.9214199e-03   6.8241459e-03
  -1.6640485e-04  -1.1125908e-03
   8.8857512e-03   7.1254192e-03
   1.1199452e-02  -3.5416094e-03
  -5.2823405e-03  -2.7680121e-03
  -7.8441666e-03   6.0641170e-03
   1.3200097e-02  -2.2518210e-03
  -7.8145592e-03   2.1712083e-03
  -7.5402314e-03  -5.2694554e-03
  -1.9028368e-03  -1.7164261e-03
   3.5442493e-03   9.1211318e-03
  -6.0150930e-04   7.5806967e-04
   1.0133376e-02   8.7840493e-03
   1.0761090e-02  -4.0947106e-03
  -4.4286377e-03  -2.2362519e-03
  -9.3388865e-03   4.2852114e-03
   1.3133447e-02  -1.1737218e-04
  -6.1192650e-03   2.1701045e-03
  -7.7910723e-03  -2.5182363e-03
  -2.7096813e-03  -5.9774265e-03
   3.3599975e-03   1.0929047e-02
  -5.0427909e-04   3.4672030e-03
   1.1583962e-02   1.1770467e-02
   9.8710712e-03  -5.9555895e-03
  -2.7205162e-03  -1.0604254e-03
  -9.6054996e-03   1.8985397e-03
   1.2257546e-02   2.4230349e-03
  -4.2792965e-03   1.3697308e-03
  -7.6747354e-03   2.9407714e-04
  -3.2584593e-03  -1.0991719e-02
   2.2827560e-03   1.1910505e-02
   1.9320941e-04   6.7880935e-03
   1.3088234e-02   1.5594029e-02
   8.4798240e-03  -9.2233934e-03
  -2.4782606e-04   7.4418950e-04
  -8.4370423e-03  -9.5256987e-04
   1.0569330e-02   5.1867670e-03
  -2.6429177e-03  -7.9996392e-05
  -7.0852041e-03   2.8675527e-03
  -3.5021341e-03  -1.6265186e-02
   4.1100491e-04   1.1874951e-02
   1.4399447e-03   1.0359582e-02
   1.4433058e-02   1.9466542e-02
   6.6060174e-03  -1.3714719e-02
   2.7258874e-03   3.0168025e-03
  -5.7879368e-03  -3.9890036e-03
   8.0794391e-03   7.9310074e-03
  -1.6681379e-03  -1.9226311e-03
  -5.9417266e-03   4.9057291e-03
  -3.4256957e-03  -2.0982078e-02
  -1.9302841e-03   1.0846856e-02
   3.0504527e-03   1.3701990e-02
   1.5374600e-02   2.2335584e-02
   4.3660573e-03  -1.8907063e-02
   5.7509656e-03   5.4215872e-03
  -1.7715273e-03  -6.8083843e-03
   4.8098068e-03   1.0355295e-02
  -1.8956724e-03  -3.8112813e-03
  -4.1979181e-03   6.1241429e-03
  -3.0341749e-03  -2.3916235e-02
  -4.1740866e-03   9.1126685e-03
   4.7062545e-03   1.6251986e-02
   1.5685171e-02   2.2952383e-02
   2.0072704e-03  -2.3933004e-02
   8.2001024e-03   7.4453505e-03
   3.3733378e-03  -8.9037215e-03
   7.9688968e-04   1.2112414e-02
  -3.9064042e-03  -5.3293055e-03
  -1.8489411e-03   6.2590204e-03
  -2.3255929e-03  -2.3353582e-02
  -5.5348193e-03   7.2363896e-03
   5.9749175e-03   1.7411440e-02
   1.5206193e-02   1.9971976e-02
  -6.4898036e-05  -2.7643180e-02
   9.3028762e-03   8.4340699e-03
   9.3282604e-03  -9.6814381e-03
  -3.9060344e-03   1.2831096e-02
  -8.2718884e-03  -6.0123152e-03
   1.0609151e-03   5.0787975e-03
  -1.2491470e-03  -1.7055507e-02
  -5.0786496e-03   6.0410154e-03
   6.3453705e-03   1.6600620e-02
   1.3893901e-02   1.2073378e-02
  -1.2845012e-03  -2.8754297e-02
   8.2058375e-03   7.6715257e-03
   1.5734538e-02  -8.4808473e-03
  -9.2336278e-03   1.2148229e-02
  -1.5507301e-02  -5.3720428e-03
   4.4292559e-03   2.3983442e-03
   3.4426258e-04  -2.2999937e-03
  -1.8350770e-03   6.5693982e-03
   5.2777573e-03   1.3305135e-02
   1.1844725e-02  -1.9183526e-03
  -9.6020307e-04  -2.6080328e-02
   4.0519746e-03   4.4936279e-03
   2.2215602e-02  -4.6066547e-03
  -1.5122055e-02   9.7417573e-03
  -2.6033650e-02  -2.9264027e-03
   8.0866054e-03  -1.9076791e-03
   2.7472733e-03   2.3965559e-02
   5.0676076e-03   1.0052122e-02
   2.2626892e-03   7.1035308e-03
   9.2940135e-03  -2.2925489e-02
   1.6535364e-03  -1.8823150e-02
  -3.9291927e-03  -1.5744528e-03
   2.8387240e-02   2.6114836e-03
  -2.1526800e-02   5.3520290e-03
  -4.0150699e-02   1.7601642e-03
   1.1791048e-02  -7.8982214e-03
   6.4238628e-03   6.4840061e-02
   1.6265433e-02   1.7913674e-02
  -3.1195929e-03  -2.3383297e-03
   6.5873408e-03  -5.1542475e-02
   7.2591453e-03  -6.8882493e-03
  -1.6333062e-02  -1.0679642e-02
   3.3870346e-02   1.3724691e-02
  -2.8436425e-02  -1.2193908e-03
  -5.8017695e-02   9.0259545e-03
   1.5230322e-02  -1.5572121e-02
   1.2005661e-02   1.2304967e-01
   3.2045052e-02   3.1847340e-02
  -1.1148824e-02  -1.5312311e-02
   4.1286477e-03  -8.8002931e-02
   1.6410229e-02   8.8163979e-03
  -3.3503565e-02  -2.2523636e-02
   3.8318464e-02   2.9038305e-02
  -3.5875964e-02  -1.0140428e-02
  -7.9638739e-02   1.9055868e-02
   1.8032803e-02  -2.4892021e-02
