   0.0000000e+00   0.0000000e+00
   0.0000000e+00   0.0000000e+00
   0.0000000e+00   0.0000000e+00
   0.0000000e+00   0.0000000e+00
   0.0000000e+00   0.0000000e+00
   0.0000000e+00   0.0000000e+00
  -5.7426405e-02   3.1622881e-01
  -1.5358899e-02  -4.6915590e-01
  -3.8365774e-01   1.0774287e+00
  -1.9925457e-01  -3.9916381e-01
   0.0000000e+00   0.0000000e+00
   0.0000000e+00   0.0000000e+00
   0.0000000e+00   0.0000000e+00
   0.0000000e+00   0.0000000e+00
   0.0000000e+00   0.0000000e+00
   0.0000000e+00   0.0000000e+00
  -6.8108707e-03   2.0416432e-01
  -5.9930659e-02  -2.0195362e-01
  -2.1612624e-01   6.2738388e-01
  -1.4684221e-01  -1.1724068e-01
   0.0000000e+00   0.0000000e+00
   0.0000000e+00   0.0000000e+00
   0.0000000e+00   0.0000000e+00
   0.0000000e+00   0.0000000e+00
   0.0000000e+00   0.0000000e+00
   0.0000000e+00   0.0000000e+00
   3.0576189e-02   6.8289378e-02
  -7.8512796e-02  -3.4631738e-02
  -9.4688860e-02   2.8800404e-01
  -8.8251269e-02   5.4314851e-02
   0.0000000e+00   0.0000000e+00
   0.0000000e+00   0.0000000e+00
   0.0000000e+00   0.0000000e+00
   0.0000000e+00   0.0000000e+00
   0.0000000e+00   0.0000000e+00
   0.0000000e+00   0.0000000e+00
   5.2545726e-02  -5.7665979e-02
  -7.7907733e-02   5.9753852e-02
  -1.3177801e-02   5.0728386e-02
  -3.0992207e-02   1.3640841e-01
   0.0000000e+00   0.0000000e+00
   0.0000000e+00   0.0000000e+00
   0.0000000e+00   0.0000000e+00
   0.0000000e+00   0.0000000e+00
   0.0000000e+00   0.0000000e+00
   0.0000000e+00   0.0000000e+00
   5.8677405e-02  -1.4883219e-01
  -6.4761325e-02   1.0559958e-01
   3.5894137e-02  -9.8985390e-02
   1.8495416e-02   1.5226085e-01
   0.0000000e+00   0.0000000e+00
   0.0000000e+00   0.0000000e+00
   0.0000000e+00   0.0000000e+00
   0.0000000e+00   0.0000000e+00
   0.0000000e+00   0.0000000e+00
   0.0000000e+00   0.0000000e+00
   5.0584515e-02  -1.9209214e-01
  -4.4843367e-02   1.2229166e-01
   6.0475410e-02  -1.7926148e-01
   5.5534172e-02   1.2459823e-01
   0.0000000e+00   0.0000000e+00
   0.0000000e+00   0.0000000e+00
   0.0000000e+00   0.0000000e+00
   0.0000000e+00   0.0000000e+00
   0.0000000e+00   0.0000000e+00
   0.0000000e+00   0.0000000e+00
   3.1753325e-02  -1.8653773e-01
  -2.2625652e-02   1.2309618e-01
   6.8161460e-02  -2.0920905e-01
   7.7596544e-02   7.3436147e-02
   0.0000000e+00   0.0000000e+00
   0.0000000e+00   0.0000000e+00
   0.0000000e+00   0.0000000e+00
   0.0000000e+00   0.0000000e+00
   0.0000000e+00   0.0000000e+00
   0.0000000e+00   0.0000000e+00
   6.9933153e-03  -1.4160882e-01
  -1.1708682e-03   1.1540021e-01
   6.5537816e-02  -2.0658278e-01
   8.4355702e-02   1.4707655e-02
   0.0000000e+00   0.0000000e+00
   0.0000000e+00   0.0000000e+00
   0.0000000e+00   0.0000000e+00
   0.0000000e+00   0.0000000e+00
   0.0000000e+00   0.0000000e+00
   0.0000000e+00   0.0000000e+00
  -1.8381607e-02  -7.3489042e-02
   1.7714102e-02   1.0202851e-01
   5.7757912e-02  -1.8606306e-01
   7.7423802e-02  -4.0211433e-02
   0.0000000e+00   0.0000000e+00
   0.0000000e+00   0.0000000e+00
   0.0000000e+00   0.0000000e+00
   0.0000000e+00   0.0000000e+00
   0.0000000e+00   0.0000000e+00
   0.0000000e+00   0.0000000e+00
  -3.9467573e-02  -6.4680975e-04
   3.3151260e-02   8.3166934e-02
   4.8387424e-02  -1.5835881e-01
   5.9851854e-02  -8.4208441e-02
   0.0000000e+00   0.0000000e+00
   0.0000000e+00   0.0000000e+00
   0.0000000e+00   0.0000000e+00
   0.0000000e+00   0.0000000e+00
   0.0000000e+00   0.0000000e+00
   0.0000000e+00   0.0000000e+00
  -5.2592997e-02   6.0480842e-02
   4.4802542e-02   5.8348502e-02
   3.9499960e-02  -1.3014979e-01
   3.5497715e-02  -1.1363041e-01
   0.0000000e+00   0.0000000e+00
   0.0000000e+00   0.0000000e+00
   0.0000000e+00   0.0000000e+00
   0.0000000e+00   0.0000000e+00
   0.0000000e+00   0.0000000e+00
   0.0000000e+00   0.0000000e+00
  -5.5884650e-02   9.8776054e-02
   5.2525120e-02   2.8011345e-02
   3.1967015e-02  -1.0471518e-01
   8.3777903e-03  -1.2728597e-01
   0.0000000e+00   0.0000000e+00
   0.0000000e+00   0.0000000e+00
   0.0000000e+00   0.0000000e+00
   0.0000000e+00   0.0000000e+00
   0.0000000e+00   0.0000000e+00
   0.0000000e+00   0.0000000e+00
  -4.9471198e-02   1.1011134e-01
   5.6150164e-02  -5.7002699e-03
   2.5857997e-02  -8.2976378e-02
  -1.7894832e-02  -1.2554097e-01
   0.0000000e+00   0.0000000e+00
   0.0000000e+00   0.0000000e+00
   0.0000000e+00   0.0000000e+00
   0.0000000e+00   0.0000000e+00
   0.0000000e+00   0.0000000e+00
   0.0000000e+00   0.0000000e+00
  -3.5295869e-02   9.7222897e-02
   5.5423302e-02  -3.8994293e-02
   2.0859853e-02  -6.4637028e-02
  -4.0511069e-02  -1.0970273e-01
   0.0000000e+00   0.0000000e+00
   0.0000000e+00   0.0000000e+00
   0.0000000e+00   0.0000000e+00
   0.0000000e+00   0.0000000e+00
   0.0000000e+00   0.0000000e+00
   0.0000000e+00   0.0000000e+00
  -1.6588113e-02   6.8023122e-02
   5.0099880e-02  -6.7218294e-02
   1.6634545e-02  -4.9135036e-02
  -5.7666264e-02  -8.1757334e-02
   0.0000000e+00   0.0000000e+00
   0.0000000e+00   0.0000000e+00
   0.0000000e+00   0.0000000e+00
   0.0000000e+00   0.0000000e+00
   0.0000000e+00   0.0000000e+00
   0.0000000e+00   0.0000000e+00
   2.8880426e-03   3.2922845e-02
   4.0145845e-02  -8.6062673e-02
   1.3051021e-02  -3.6216196e-02
  -6.8560328e-02  -4.4393970e-02
   0.0000000e+00   0.0000000e+00
   0.0000000e+00   0.0000000e+00
   0.0000000e+00   0.0000000e+00
   0.0000000e+00   0.0000000e+00
   0.0000000e+00   0.0000000e+00
   0.0000000e+00   0.0000000e+00
   1.9641171e-02   1.9112933e-03
   2.5963354e-02  -9.2774807e-02
   1.0260967e-02  -2.6068115e-02
  -7.3238064e-02  -1.1541704e-03
   0.0000000e+00   0.0000000e+00
   0.0000000e+00   0.0000000e+00
   0.0000000e+00   0.0000000e+00
   0.0000000e+00   0.0000000e+00
   0.0000000e+00   0.0000000e+00
   0.0000000e+00   0.0000000e+00
   3.1135704e-02  -1.7869120e-02
   8.5516453e-03  -8.6997004e-02
   8.6316627e-03  -1.9083293e-02
  -7.2338859e-02   4.3494605e-02
   0.0000000e+00   0.0000000e+00
   0.0000000e+00   0.0000000e+00
   0.0000000e+00   0.0000000e+00
   0.0000000e+00   0.0000000e+00
   0.0000000e+00   0.0000000e+00
   0.0000000e+00   0.0000000e+00
   3.6209636e-02  -2.3502657e-02
  -1.0465874e-02  -7.0960199e-02
   8.5849297e-03  -1.5420163e-02
  -6.6830858e-02   8.4334319e-02
   0.0000000e+00   0.0000000e+00
   0.0000000e+00   0.0000000e+00
   0.0000000e+00   0.0000000e+00
   0.0000000e+00   0.0000000e+00
   0.0000000e+00   0.0000000e+00
   0.0000000e+00   0.0000000e+00
   3.5155394e-02  -1.6394649e-02
  -2.8978133e-02  -4.8953569e-02
   1.0406561e-02  -1.4577129e-02
  -5.7791017e-02   1.1590944e-01
   0.0000000e+00   0.0000000e+00
   0.0000000e+00   0.0000000e+00
   0.0000000e+00   0.0000000e+00
   0.0000000e+00   0.0000000e+00
   0.0000000e+00   0.0000000e+00
   0.0000000e+00   0.0000000e+00
   2.9472376e-02  -1.1934360e-03
  -4.4672184e-02  -2.6198571e-02
   1.4088248e-02  -1.5177086e-02
  -4.6267157e-02   1.3334823e-01
   0.0000000e+00   0.0000000e+00
   0.0000000e+00   0.0000000e+00
   0.0000000e+00   0.0000000e+00
   0.0000000e+00   0.0000000e+00
   0.0000000e+00   0.0000000e+00
   0.0000000e+00   0.0000000e+00
   2.1371116e-02   1.6041953e-02
  -5.5414476e-02  -7.4299845e-03
   1.9248757e-02  -1.5084828e-02
  -3.3230192e-02   1.3334381e-01
   0.0000000e+00   0.0000000e+00
   0.0000000e+00   0.0000000e+00
   0.0000000e+00   0.0000000e+00
   0.0000000e+00   0.0000000e+00
   0.0000000e+00   0.0000000e+00
   0.0000000e+00   0.0000000e+00
   1.3158135e-02   2.9830846e-02
  -5.9647406e-02   4.4201337e-03
   2.5158088e-02  -1.1869419e-02
  -1.9599840e-02   1.1506119e-01
   0.0000000e+00   0.0000000e+00
   0.0000000e+00   0.0000000e+00
   0.0000000e+00   0.0000000e+00
   0.0000000e+00   0.0000000e+00
   0.0000000e+00   0.0000000e+00
   0.0000000e+00   0.0000000e+00
   6.6501578e-03   3.6810603e-02
  -5.6713409e-02   9.0531258e-03
   3.0861286e-02  -3.5087042e-03
  -6.3083055e-03   8.0711523e-02
   0.0000000e+00   0.0000000e+00
   0.0000000e+00   0.0000000e+00
   0.0000000e+00   0.0000000e+00
   0.0000000e+00   0.0000000e+00
   0.0000000e+00   0.0000000e+00
   0.0000000e+00   0.0000000e+00
   2.7551004e-03   3.6382197e-02
  -4.7031305e-02   8.8850604e-03
   3.5371969e-02   1.0854775e-02
   5.6429446e-03   3.5579612e-02
   0.0000000e+00   0.0000000e+00
   0.0000000e+00   0.0000000e+00
   0.0000000e+00   0.0000000e+00
   0.0000000e+00   0.0000000e+00
   0.0000000e+00   0.0000000e+00
   0.0000000e+00   0.0000000e+00
   1.3164519e-03   3.0302488e-02
  -3.2077542e-02   8.3086430e-03
   3.7887666e-02   3.0335365e-02
   1.5175722e-02  -1.2602098e-02
   0.0000000e+00   0.0000000e+00
   0.0000000e+00   0.0000000e+00
   0.0000000e+00   0.0000000e+00
   0.0000000e+00   0.0000000e+00
   0.0000000e+00   0.0000000e+00
   0.0000000e+00   0.0000000e+00
   1.2570071e-03   2.1397221e-02
  -1.4162731e-02   1.2286549e-02
   3.7973255e-02   5.2109627e-02
   2.1208045e-02  -5.4894357e-02
   0.0000000e+00   0.0000000e+00
   0.0000000e+00   0.0000000e+00
   0.0000000e+00   0.0000000e+00
   0.0000000e+00   0.0000000e+00
   0.0000000e+00   0.0000000e+00
   0.0000000e+00   0.0000000e+00
   9.8921770e-04   1.1861702e-02
   3.9637638e-03   2.4619514e-02
   3.5661266e-02   7.1731996e-02
   2.2819262e-02  -8.2819232e-02
   0.0000000e+00   0.0000000e+00
   0.0000000e+00   0.0000000e+00
   0.0000000e+00   0.0000000e+00
   0.0000000e+00   0.0000000e+00
   0.0000000e+00   0.0000000e+00
   0.0000000e+00   0.0000000e+00
  -1.0098533e-03   1.7892140e-03
   1.9606015e-02   4.6346650e-02
   3.1428924e-02   8.3969033e-02
   1.9492294e-02  -9.0151466e-02
   0.0000000e+00   0.0000000e+00
   0.0000000e+00   0.0000000e+00
   0.0000000e+00   0.0000000e+00
   0.0000000e+00   0.0000000e+00
   0.0000000e+00   0.0000000e+00
   0.0000000e+00   0.0000000e+00
  -5.6143937e-03  -1.1428556e-02
   3.0604420e-02   7.4740792e-02
   2.6038472e-02   8.4031608e-02
   1.1386021e-02  -7.4474287e-02
   0.0000000e+00   0.0000000e+00
   0.0000000e+00   0.0000000e+00
   0.0000000e+00   0.0000000e+00
   0.0000000e+00   0.0000000e+00
   0.0000000e+00   0.0000000e+00
   0.0000000e+00   0.0000000e+00
  -1.2623603e-02  -3.2357223e-02
   3.5699991e-02   1.0325333e-01
   2.0264524e-02   6.8974010e-02
  -4.3168255e-04  -3.8162125e-02
   0.0000000e+00   0.0000000e+00
   0.0000000e+00   0.0000000e+00
   0.0000000e+00   0.0000000e+00
   0.0000000e+00   0.0000000e+00
   0.0000000e+00   0.0000000e+00
   0.0000000e+00   0.0000000e+00
  -2.0625113e-02  -6.5277247e-02
   3.4696056e-02   1.2256008e-01
   1.4562148e-02   3.8963511e-02
  -1.3859658e-02   1.1451253e-02
   0.0000000e+00   0.0000000e+00
   0.0000000e+00   0.0000000e+00
   0.0000000e+00   0.0000000e+00
   0.0000000e+00   0.0000000e+00
   0.0000000e+00   0.0000000e+00
   0.0000000e+00   0.0000000e+00
  -2.7212986e-02  -1.1068412e-01
   2.8378481e-02   1.2260403e-01
   8.7440351e-03  -1.8784961e-03
  -2.5800138e-02   6.2806540e-02
   0.0000000e+00   0.0000000e+00
   0.0000000e+00   0.0000000e+00
   0.0000000e+00   0.0000000e+00
   0.0000000e+00   0.0000000e+00
   0.0000000e+00   0.0000000e+00
   0.0000000e+00   0.0000000e+00
  -2.9542571e-02  -1.6115189e-01
   1.8209886e-02   9.5280383e-02
   1.7358181e-03  -4.5297008e-02
  -3.2380301e-02   1.0166145e-01
   0.0000000e+00   0.0000000e+00
   0.0000000e+00   0.0000000e+00
   0.0000000e+00   0.0000000e+00
   0.0000000e+00   0.0000000e+00
   0.0000000e+00   0.0000000e+00
   0.0000000e+00   0.0000000e+00
  -2.5123071e-02  -1.9744950e-01
   5.8629343e-03   3.7223414e-02
  -8.5338972e-03  -7.9497026e-02
  -2.9344050e-02   1.1318162e-01
   0.0000000e+00   0.0000000e+00
   0.0000000e+00   0.0000000e+00
   0.0000000e+00   0.0000000e+00
   0.0000000e+00   0.0000000e+00
   0.0000000e+00   0.0000000e+00
   0.0000000e+00   0.0000000e+00
  -1.2687579e-02  -1.8588559e-01
  -7.3086085e-03  -4.7919219e-02
  -2.5076716e-02  -9.0468655e-02
  -1.2560974e-02   8.4201453e-02
   0.0000000e+00   0.0000000e+00
   0.0000000e+00   0.0000000e+00
   0.0000000e+00   0.0000000e+00
   0.0000000e+00   0.0000000e+00
   0.0000000e+00   0.0000000e+00
   0.0000000e+00   0.0000000e+00
   7.0480182e-03  -7.7726758e-02
  -2.0747940e-02  -1.4828131e-01
  -5.1620653e-02  -6.3849297e-02
   2.1426648e-02   5.2337411e-03
   0.0000000e+00   0.0000000e+00
   0.0000000e+00   0.0000000e+00
   0.0000000e+00   0.0000000e+00
   0.0000000e+00   0.0000000e+00
   0.0000000e+00   0.0000000e+00
   0.0000000e+00   0.0000000e+00
   3.0917059e-02   1.8879582e-01
  -3.5013293e-02  -2.4401457e-01
  -9.2250474e-02   1.2991174e-02
   7.4905618e-02  -1.2815018e-01
   0.0000000e+00   0.0000000e+00
   0.0000000e+00   0.0000000e+00
   0.0000000e+00   0.0000000e+00
   0.0000000e+00   0.0000000e+00
   0.0000000e+00   0.0000000e+00
   0.0000000e+00   0.0000000e+00
   5.3258344e-02   6.8384770e-01
  -5.1852114e-02  -3.0906733e-01
  -1.5096928e-01   1.4901720e-01
   1.4862105e-01  -3.1482579e-01
