  -3.6413945e-02  -1.4846923e-01  -6.4471302e-02  -1.5846303e-01   7.5957891e-02  -7.3908923e-02  -9.4101706e-02   1.4979779e-01  -2.4228828e-02   5.5680937e-01  -2.0244074e-01  -5.0977875e-02  -1.0229893e+00   7.5982502e-02  -7.7347638e-01   2.4189761e-01  -5.5857945e-01  -9.1371265e-01  -7.3617185e-01   1.1399947e+00  -4.6782012e-03   2.5476837e+00  -1.4165931e-01  -4.3267226e-01   9.9530501e-01
  -6.1942258e-03  -8.1886254e-02   5.7353955e-02   8.7708520e-02  -1.8185870e-01   3.6253796e-01   1.9975862e-01  -4.1683324e-01   1.2897705e-01   6.3116229e-01  -5.9172464e-01  -2.5929724e-01   9.4479598e-02   2.1788402e-01   3.6165782e-01  -8.9552087e-01   1.7708174e-01  -5.2616232e-01  -1.3825725e+00  -1.3584530e+00   8.9745829e-01   7.8981304e-01   8.5566855e-01   3.4904634e-01   4.9568893e-01
   1.7985777e-02   5.4777283e-02  -9.3557507e-02   2.4874411e-02   2.2052192e-01   4.0010101e-01  -5.3342321e-02   1.0474421e-02  -1.3529419e-01  -1.1588778e-01  -4.8597289e-01  -4.7671886e-02  -7.6488673e-01  -3.8088467e-01  -4.4405689e-02  -3.2782382e-01   9.5958137e-02   4.4191825e-01  -7.2307867e-02   8.2687161e-02   2.2994092e-01   5.0607005e-01  -7.6250665e-01   1.9584624e-01  -1.0775101e+00
   2.0974794e-02  -7.4287017e-02  -8.0774892e-02   2.1369530e-02  -2.5684241e-01  -2.0581169e-02   1.5340510e-02  -8.2355552e-02  -2.1408529e-01   4.2688439e-01   8.8770790e-01   5.2398929e-01   7.4059459e-03   6.6301338e-01  -8.4856354e-01  -3.2682625e-01  -6.0232705e-01   9.2767979e-01   7.7026531e-01   6.8614857e-01   9.2921228e-01  -8.9948641e-01   7.0572308e-01   3.2541516e-01   1.1523551e-01
  -5.0214237e-02   3.0052247e-02   1.0956198e-01   1.9161989e-01   8.0223997e-02   9.9991752e-02  -9.2080671e-02   2.4375444e-01  -9.2084694e-02  -5.3097345e-01   1.4145740e-01  -8.8956839e-02   3.5065774e-02  -3.0449941e-01   1.3778137e+00  -7.6062770e-01   4.1213152e-01  -8.2786229e-01   4.8070657e-01   2.8298953e+00  -4.3600966e-02  -1.3606053e-01   2.0318573e-01   1.3315564e-01  -5.8296867e-01
   9.8080173e-04  -5.6839235e-03  -1.6742773e-02   8.4991734e-02   5.4288728e-02   5.9340212e-02   2.0218891e-01  -2.4011498e-01   2.3318817e-01   1.8786621e-01   4.3934427e-01  -7.0244294e-01   4.0333126e-02  -2.9491337e-01  -9.6389748e-01  -9.4566938e-02   1.5598814e+00   5.2528796e-01   8.9418539e-01   3.9703453e-01   1.1998337e+00   4.2869171e-01   4.9712616e-01   3.7427205e-01   7.9710629e-01
   6.9443323e-03  -5.0054475e-02   4.7292506e-02   1.3277805e-01   2.4207131e-01   2.8591149e-01  -6.8102152e-01   1.6589653e-01  -6.0389462e-01   5.0759482e-01  -3.7421275e-01  -3.2579581e-01  -3.1825253e-01   8.6415758e-01   5.7517796e-01   1.2145395e+00   7.3186568e-01   1.9507026e+00  -1.5287622e-02   1.8578271e+00  -7.6068544e-01  -6.8552337e-03  -1.5189541e+00   2.6259782e-01   1.1467642e+00
   4.6815264e-02  -2.0581667e-01   1.1382232e-01   1.0017892e-02  -4.4576633e-01   3.9375575e-01   2.9588790e-01   6.5502580e-01   5.7763817e-01  -4.4644873e-01   5.9115092e-01  -5.6423810e-02   2.5990088e-01  -3.8944736e-01   1.4366508e-02   1.5345174e+00  -2.4966566e-01  -3.5734097e-01  -6.9146413e-01  -8.5228626e-01  -1.2548156e+00   3.0633457e-01  -9.2133874e-01   1.1691445e+00  -8.7056022e-01
   3.3056865e-02  -2.3315524e-01  -1.4218092e-01   8.4889216e-02   2.7800615e-01  -1.2040796e-02   3.5544365e-01  -1.2244114e-01  -5.6795644e-01  -1.1561089e+00   4.9508429e-01   1.2980265e-01   5.0139777e-01  -8.3325439e-02   9.6172354e-01  -1.0627226e+00  -9.2192630e-01  -1.9753324e-01  -2.0737885e+00  -4.0737376e-01   3.3901104e-01  -8.8476860e-01  -2.1244968e+00  -3.3889952e-01   1.2720820e+00
   2.5526623e-02  -1.2332141e-01   8.0961721e-02  -1.4611872e-01   1.0027188e-01   4.2451883e-01  -1.2389160e-02  -4.4486817e-01  -4.2937698e-01   5.8407487e-01   4.4192597e-01   1.2633275e+00   6.2742689e-01  -1.1202265e+00  -1.7222913e-01   3.9398316e-01   1.2817197e+00  -1.1263126e+00  -6.5874835e-01   6.0134458e-01  -1.2517615e+00  -1.4573554e+00  -7.5802948e-01  -1.0267170e+00   5.3537644e-02
  -2.2118883e-02  -8.7862599e-02  -4.4368296e-02  -1.0472639e-01   5.8974964e-02  -2.4848110e-02  -8.0487657e-02   1.1759924e-01  -5.7717358e-02   2.8492849e-01  -1.0540923e-01  -1.9305558e-02  -6.0113372e-01  -1.5069985e-02  -3.7370668e-01   1.4733891e-01  -3.1560042e-01  -4.4041291e-01  -4.3122268e-01   6.6488122e-01  -4.1146662e-02   1.5356496e+00  -1.7036659e-01  -4.0431177e-01   5.5750348e-01
  -3.7329184e-03  -4.6667376e-02   2.3210763e-02   5.9774336e-02  -8.4419013e-02   2.4595986e-01   1.0296846e-01  -2.6957306e-01   9.7085548e-02   3.8043091e-01  -3.8690958e-01  -1.9867004e-01   1.6722828e-01   1.0002963e-01   2.7556798e-01  -6.0238536e-01   2.5660851e-01  -3.3818828e-01  -6.9437696e-01  -7.4988448e-01   3.9897039e-01   4.6939051e-01   4.7778949e-01   2.4306526e-01   2.1570265e-01
   7.3324060e-03   1.4940897e-02  -4.2389734e-02   1.6689237e-02   9.8121055e-02   1.8619224e-01   1.2757036e-02  -5.5789303e-03  -3.6940914e-02  -3.0029219e-03  -1.7792357e-01  -1.4767087e-02  -3.5588619e-01  -9.0030002e-02  -3.3501534e-02  -2.9638009e-01   1.3165129e-01   7.1616140e-02   6.6832517e-02   1.8327151e-01   2.7715394e-01   2.6071040e-01  -2.3405193e-01   2.3781550e-01  -3.4330544e-01
   9.8915395e-03  -1.6595694e-02  -3.0530334e-02  -8.2149373e-03  -5.2176869e-02   1.2550465e-03   1.3204087e-02   5.0023905e-02  -7.7117494e-02   7.7403169e-02   2.4637461e-01   1.6987084e-01  -1.2646554e-01   1.3336577e-01  -3.1400154e-01   6.7195150e-02  -3.1533088e-01   3.8295878e-01   2.8613608e-01   2.6791424e-01   1.3531047e-01  -2.9120002e-01  -1.0239812e-01   6.0661248e-02  -2.5034032e-01
  -2.0434804e-02   6.2686635e-03   3.1975758e-02   7.9003657e-02   5.4765064e-02   2.6842129e-02  -1.2289188e-02   3.3659235e-02  -7.8099385e-03  -9.2220825e-02   5.5633358e-02  -1.4900659e-01  -2.9387631e-02  -6.6133128e-02   2.7836163e-01  -2.5194671e-01   2.7729936e-01  -3.7575273e-01   2.6965787e-01   9.4775353e-01   8.5675955e-02   1.4446734e-01   2.0157736e-01   3.8467762e-02  -1.5107254e-01
  -5.0668792e-03   5.2566626e-03   7.5836078e-03   6.3111917e-02   3.2746527e-02   5.1587170e-02   1.0839578e-01  -4.2553354e-02   9.2690482e-02  -5.9895639e-04   1.5651921e-01  -3.1493085e-01   2.5280647e-02  -2.0500060e-01  -1.8363206e-01  -1.9805646e-01   6.0066586e-01   1.3060860e-01   4.1648384e-01   2.8280178e-01   3.0492573e-01  -3.9117983e-02   1.0540757e-01  -9.2557815e-02   1.8510035e-01
  -5.8011037e-03  -4.8903804e-03   3.3784604e-02   5.3264947e-02   9.4003970e-02   1.2100595e-01  -4.1817467e-01   4.2979998e-02  -2.5488783e-01   3.8449136e-01  -2.8191563e-01  -2.1692611e-01  -2.1861342e-01   4.9807606e-01   2.6327102e-01   5.2842523e-01   4.2061133e-01   9.7423981e-01   1.9295943e-01   9.2491351e-01  -3.8824456e-01   1.0173286e-01  -4.8399539e-01  -4.3585465e-02   4.5715128e-01
   3.1560042e-02  -1.4530383e-01   7.2696380e-02   2.5450917e-03  -3.3646956e-01   2.3241085e-01   2.5124624e-01   4.7300915e-01   3.9810237e-01  -2.9668936e-01   3.8328192e-01  -1.0505377e-01   1.5157106e-01  -2.2228741e-01  -1.0495216e-01   8.2051954e-01  -2.8951833e-01  -1.1056495e-01  -2.8816924e-01  -7.1140801e-01  -7.6160172e-01   3.5969597e-01  -4.4530941e-01   7.5272435e-01  -6.1820821e-01
   1.6288362e-02  -1.3294597e-01  -9.6748602e-02   3.6681377e-02   1.5822695e-01  -3.6378605e-02   2.9600366e-01  -7.4116032e-02  -2.9759987e-01  -8.1538949e-01   3.1382691e-01   9.0037691e-02   3.0711689e-01  -1.7771337e-01   5.3492138e-01  -7.7594255e-01  -6.4332696e-01  -3.2087237e-01  -1.1089209e+00  -4.0476056e-01   3.0387176e-01  -4.8563397e-01  -1.0378371e+00  -1.5937892e-01   5.7370813e-01
   1.7739286e-02  -8.4116867e-02   5.7309722e-02  -1.1646859e-01   8.6722707e-02   2.9174700e-01  -2.9431296e-02  -3.4376172e-01  -3.9687776e-01   4.6223739e-01   2.4633769e-01   9.3925623e-01   4.1257863e-01  -7.0241403e-01  -2.1379495e-01   1.3861884e-01   9.4723240e-01  -7.5610379e-01  -4.1982711e-01   3.5647771e-01  -8.1243783e-01  -9.5017194e-01  -3.9242446e-01  -8.7248644e-01  -9.6017826e-02
  -1.0227594e-02  -4.1787061e-02  -3.0138929e-02  -6.6895704e-02   4.1988303e-02   4.8019874e-03  -6.2552445e-02   7.4421744e-02  -7.4035766e-02   9.6269153e-02  -3.7161224e-02  -9.8810155e-03  -2.8034971e-01  -7.1516687e-02  -1.4680822e-01   9.6622255e-02  -1.0337306e-01  -6.0736030e-02  -1.6780004e-01   2.5509248e-01  -1.7184000e-02   7.3485295e-01  -1.7315476e-01  -3.1896123e-01   2.4979805e-01
  -1.4699293e-03  -2.2190194e-02  -1.6830442e-03   3.9273468e-02  -2.2571640e-02   1.5053299e-01   4.2861307e-02  -1.6144487e-01   7.2013079e-02   1.9655650e-01  -2.0119154e-01  -1.2549117e-01   1.9921450e-01   3.8409499e-02   1.6542311e-01  -3.9299426e-01   2.7793124e-01  -1.8264705e-01  -1.5970365e-01  -2.7244153e-01   1.0331199e-01   1.7884109e-01   2.3161369e-01   1.9564847e-01   6.2587507e-03
   9.7635063e-04  -8.8872821e-03  -6.6284718e-03   9.7855402e-03   2.3612623e-02   4.2586231e-02   4.6816881e-02  -1.2054914e-02   2.3739828e-02   5.6452651e-02  -2.2375974e-03  -2.5487973e-03  -8.6701862e-02   8.0530498e-02  -1.3860599e-02  -2.1277359e-01   1.4434680e-01  -1.6065527e-01   1.0842097e-01   1.7668083e-01   2.3013559e-01   1.1500593e-01   5.0919478e-02   2.0227183e-01   1.3095149e-01
   3.2420407e-03   1.6515136e-02  -5.1444723e-03  -2.5230861e-02   6.9945568e-02   7.5049808e-03   3.9639134e-03   1.1402649e-01  -1.0001400e-03  -1.2786607e-01  -8.7704784e-02  -2.3517500e-02  -1.8686035e-01  -1.7295849e-01  -3.5756861e-04   2.7354033e-01  -1.0586156e-01   6.2986785e-02   1.8817575e-02   4.5788798e-02  -3.0023078e-01   7.2584175e-02  -5.1919253e-01  -7.5081394e-02  -3.9281112e-01
  -2.9536762e-03  -1.1947698e-02  -1.5199273e-02   4.0422246e-03   3.2717345e-02  -1.5100050e-02   3.1910400e-02  -7.1101834e-02   2.9386192e-02   1.5631329e-01   1.8733284e-02  -1.4849526e-01  -8.4844425e-02   5.8527445e-02  -3.4120788e-01   4.2794575e-02   1.1518295e-01  -5.8770417e-02   9.9652828e-02  -1.7278242e-01   1.3712761e-01   2.9312570e-01   1.5300020e-01  -9.9858888e-02   1.4377226e-01
  -5.5498859e-03   1.0530713e-02   1.8153002e-02   4.4880856e-02   1.6266456e-02   3.8064203e-02   4.5373766e-02   4.4043501e-02   5.7582181e-03  -9.4992644e-02  -5.3998201e-03  -6.1676763e-02   4.2685609e-02  -1.1178972e-01   2.1851429e-01  -2.0189409e-01   1.9965232e-03  -6.7802823e-02   9.6543838e-02   1.3505704e-01  -2.2659997e-01  -3.2384437e-01  -1.1065077e-01  -2.9799854e-01  -1.8073847e-01
  -1.1931985e-02   2.3043909e-02   2.0640628e-02   1.7006533e-03  -3.8398943e-03   7.0429222e-03  -2.2284578e-01  -3.6401531e-02  -3.1094942e-02   2.7643275e-01  -1.9627872e-01  -1.2649038e-01  -1.2938897e-01   2.2529349e-01   4.8744521e-02   7.9667340e-02   1.6964452e-01   2.7874965e-01   2.5078995e-01   2.3666090e-01  -1.0670494e-01   1.3710805e-01   1.7895922e-01  -2.1437975e-01   1.2189617e-02
   1.9043060e-02  -9.6424194e-02   4.0281630e-02   7.2618700e-04  -2.3728306e-01   1.0948868e-01   2.0643404e-01   3.2944478e-01   2.4935299e-01  -1.8587037e-01   2.1869367e-01  -1.4084696e-01   4.9621490e-02  -8.6111705e-02  -1.5371347e-01   2.9039906e-01  -3.1816190e-01   5.6360367e-02   7.4719002e-03  -5.3893093e-01  -3.5552377e-01   3.5604993e-01  -1.1130443e-01   4.3453568e-01  -3.5937573e-01
   4.5294233e-03  -5.7660407e-02  -6.0718360e-02   3.1542829e-03   7.4406064e-02  -4.5212077e-02   2.3009959e-01  -3.1932204e-02  -1.0256995e-01  -5.2773542e-01   1.6835203e-01   6.0690573e-02   1.5205228e-01  -2.2397496e-01   1.9566248e-01  -5.0057254e-01  -4.0681348e-01  -3.4302029e-01  -4.0766077e-01  -3.7370598e-01   2.6612923e-01  -1.8703092e-01  -2.7481483e-01  -4.4785615e-03   9.5180919e-02
   1.1475333e-02  -5.1259833e-02   3.7876920e-02  -9.1330675e-02   7.4558219e-02   1.8313506e-01  -4.0229361e-02  -2.4691258e-01  -3.5295379e-01   3.4005414e-01   1.0289913e-01   6.7018738e-01   2.3469376e-01  -3.5712442e-01  -2.3243256e-01  -3.7843893e-02   6.4415132e-01  -4.3211557e-01  -2.2937929e-01   1.6564815e-01  -4.3396148e-01  -5.4240384e-01  -1.2673881e-01  -7.0833104e-01  -1.5812203e-01
  -1.2874330e-03  -9.0522296e-03  -2.0063890e-02  -4.1267346e-02   2.5959199e-02   2.0075178e-02  -4.3714261e-02   3.1304487e-02  -7.8264681e-02  -2.6309892e-02   5.9910174e-03  -1.3128957e-02  -5.4843213e-02  -1.0115900e-01  -3.4789624e-02   7.0718218e-02   6.4798417e-02   2.1749906e-01   4.5930317e-02  -5.5544923e-02   3.7313198e-02   1.3367099e-01  -1.6133898e-01  -2.0563789e-01   4.5609036e-02
   4.6143228e-04  -5.9835465e-03  -1.7584636e-02   2.5170596e-02   1.3414481e-02   7.8898494e-02   1.2916590e-02  -8.5221430e-02   5.4869467e-02   6.7358427e-02  -5.6070579e-02  -5.5183210e-02   1.9331066e-01   1.3845824e-02   5.6431644e-02  -2.4626101e-01   2.5929315e-01  -6.3175656e-02   2.1736309e-01   6.7375274e-02  -4.7450691e-02  -5.6830190e-02   7.2440410e-02   1.7836164e-01  -1.4591657e-01
  -2.0623132e-03  -2.0556537e-02   1.5064826e-02   4.8464156e-03  -1.5585332e-02  -4.0469275e-02   5.7420165e-02  -1.4193420e-02   5.2803787e-02   7.8090112e-02   7.8226872e-02  -1.2827640e-03   6.8178844e-02   1.6117086e-01   7.3887946e-03  -1.1243581e-01   1.4055173e-01  -2.7948365e-01   8.4606147e-02   1.0969744e-01   1.4021062e-01   4.2154366e-02   1.6164531e-01   1.2700995e-01   3.9222376e-01
  -6.7654592e-05   3.0357050e-02   3.2433534e-03  -3.1815528e-02   1.2422087e-01   3.2190747e-03  -5.6283322e-03   1.3001625e-01   2.7713678e-02  -2.1837398e-01  -2.0013278e-01  -9.6263094e-02  -1.9965565e-01  -3.0227393e-01   1.4612035e-01   3.3847741e-01   2.3443799e-02  -9.2186464e-02  -8.8906445e-02  -2.6838914e-02  -4.6147636e-01   2.4569831e-01  -6.4454624e-01  -1.1447543e-01  -3.8786097e-01
   4.9003032e-03  -2.3621649e-02  -3.7663818e-02  -3.8870336e-02   1.5411755e-02  -3.3802043e-02   4.8107863e-02  -1.0111952e-01   3.4309633e-02   2.5802723e-01   1.3361774e-02  -1.1116383e-01  -1.1857559e-01   1.0046868e-01  -5.9439718e-01   1.7861701e-01  -4.0614448e-02   1.2690120e-01  -2.5442456e-02  -6.9796485e-01   1.3222517e-01   3.4597778e-01   8.5062287e-02  -2.3654762e-01   3.0851408e-01
  -2.9106687e-03   1.1214148e-02   1.9152324e-02   3.0380409e-02   4.4341156e-03   2.3265432e-02   1.0324937e-02   5.5750155e-02  -3.6928954e-02  -1.2031663e-01  -7.4513903e-02   7.6126493e-02   7.0966495e-02  -3.1042729e-02   3.4698810e-01  -1.5310932e-01  -3.0301872e-01  -1.2235967e-01  -9.0055558e-02  -1.1675868e-02  -4.7023200e-01  -4.5218873e-01  -1.9535761e-01  -3.2606057e-01  -3.4385966e-01
  -1.3073018e-02   3.6355132e-02   8.8196014e-03  -2.7008420e-02  -6.0200485e-02  -6.3855215e-02  -8.6426867e-02  -8.0256473e-02   9.2605629e-02   1.8317349e-01  -1.1884478e-01  -5.5610494e-02  -5.1128152e-02   3.3793240e-02  -8.4019307e-02  -1.8047889e-01  -1.8335119e-02  -1.7521421e-01   2.1025433e-01  -2.2955978e-01   8.6693083e-02   1.2544547e-01   5.3631480e-01  -2.8041710e-01  -2.3849151e-01
   9.1739665e-03  -5.8352018e-02   1.5990036e-02   3.0053311e-03  -1.5084680e-01   2.1209160e-02   1.6377180e-01   2.1950891e-01   1.3075217e-01  -1.0781936e-01   9.2459755e-02  -1.6563575e-01  -3.9991565e-02   1.8665313e-02  -1.4983574e-01  -7.8327813e-02  -3.2880808e-01   1.5525926e-01   2.1039829e-01  -3.5047482e-01  -3.8518148e-02   3.1318735e-01   1.0081570e-01   2.0574123e-01  -1.1315296e-01
  -3.0023309e-03  -5.0371374e-03  -3.3329240e-02  -1.7711768e-02   2.1271172e-02  -4.1333952e-02   1.6193518e-01   3.0539473e-03   2.6508249e-02  -2.9641617e-01   5.7273672e-02   3.9081313e-02   3.4084307e-02  -2.3193938e-01  -5.5685369e-02  -2.5363103e-01  -2.0973884e-01  -2.9004204e-01   6.8470752e-02  -3.1348047e-01   2.2496879e-01   2.2772157e-02   2.1130858e-01   1.1486897e-01  -2.0030862e-01
   6.6010284e-03  -2.4761589e-02   2.2296043e-02  -7.0639704e-02   6.3602824e-02   9.7452824e-02  -4.5123324e-02  -1.5772280e-01  -3.0258110e-01   2.2378280e-01   6.0057839e-03   4.5442224e-01   9.4701605e-02  -8.1418566e-02  -2.3234801e-01  -1.4873580e-01   3.7968551e-01  -1.6015028e-01  -8.0502121e-02   2.6009283e-02  -1.1899656e-01  -2.2278979e-01   5.5105445e-02  -5.3846491e-01  -1.5587765e-01
   4.5658110e-03   1.1993230e-02  -1.2837582e-02  -2.4561378e-02   1.1714173e-02   2.5352616e-02  -2.6376592e-02  -4.7497673e-03  -7.4387694e-02  -9.8259283e-02   2.8125136e-02  -2.1548132e-02   8.6249766e-02  -1.1076003e-01   7.7133547e-03   5.6220920e-02   1.8203589e-01   3.9471309e-01   2.0565388e-01  -2.5286233e-01   9.9064060e-02  -2.8578786e-01  -1.4302472e-01  -8.6447830e-02  -8.1954634e-02
   2.0011675e-03   3.9909871e-03  -2.5491974e-02   1.6376133e-02   3.1873114e-02   3.1219321e-02   5.8949117e-03  -3.4491475e-02   4.5431519e-02  -1.8417955e-02   3.8649693e-02   2.4741647e-03   1.5639201e-01   1.1248533e-02  -3.4612472e-02  -1.4469877e-01   2.1683758e-01   2.1354770e-02   4.4515699e-01   2.7625627e-01  -1.0278437e-01  -2.2408200e-01  -3.4682228e-02   1.7062039e-01  -2.4971642e-01
  -2.8333148e-03  -2.3472794e-02   2.5121164e-02   2.1844206e-03  -3.1024896e-02  -7.5391116e-02   5.3068514e-02  -1.5252114e-02   5.8196677e-02   7.5602057e-02   9.5100203e-02  -3.8790490e-03   1.3582525e-01   1.7894417e-01   2.6523650e-02  -2.1652353e-02   1.2515143e-01  -3.1577331e-01   2.4998957e-02   2.0624194e-02   4.5126524e-02   1.8155955e-02   1.6222276e-01   4.1556560e-02   4.8802495e-01
  -1.0742097e-03   3.0705702e-02   1.4236229e-03  -3.0798814e-02   1.2859934e-01  -7.0076934e-03  -1.2057540e-02   1.1699449e-01   2.3230206e-02  -2.2577206e-01  -1.7337819e-01  -8.8909381e-02  -1.8635753e-01  -3.0529838e-01   1.7907755e-01   3.0970538e-01   8.0606981e-02  -1.3811299e-01  -9.4394085e-02  -4.6661149e-04  -4.3638887e-01   2.8508567e-01  -5.7716302e-01  -9.2171621e-02  -2.9800264e-01
   6.0017259e-03  -2.8981743e-02  -4.1925157e-02  -5.6610925e-02   3.7409885e-03  -3.6641847e-02   4.4772249e-02  -8.5434932e-02   2.0861107e-02   2.5761054e-01   2.4952146e-02  -5.9424779e-02  -1.2644839e-01   8.8123502e-02  -5.9839466e-01   2.0889882e-01  -1.6305417e-01   2.0262676e-01  -1.0559902e-01  -8.0079857e-01   9.4354727e-02   3.3555887e-01   1.5666478e-02  -3.4022577e-01   3.6456893e-01
   7.6829177e-04   8.8965011e-03   1.4566524e-02   1.9647032e-02  -3.2331497e-03   1.0446388e-02  -2.0147957e-03   2.5172502e-02  -4.6347472e-02  -1.0193357e-01  -7.9288390e-02   1.2389581e-01   9.6123565e-02   2.6832243e-02   3.0426796e-01  -8.8433719e-02  -3.9014867e-01  -8.8527498e-02  -1.7300182e-01  -1.3019815e-01  -5.0784037e-01  -4.5925084e-01  -1.9123836e-01  -2.5090404e-01  -3.5792247e-01
  -1.0876764e-02   3.8292874e-02  -7.0073821e-04  -3.8311031e-02  -8.4845571e-02  -1.0082114e-01   1.3982183e-03  -9.7390541e-02   1.4247192e-01   1.0460725e-01  -5.1406552e-02  -3.3969868e-03   1.6459701e-02  -9.0491994e-02  -1.5211336e-01  -3.0103329e-01  -1.4622110e-01  -4.3591220e-01   1.1726256e-01  -5.0672269e-01   2.0044602e-01   8.8137554e-02   6.6234348e-01  -2.7133317e-01  -3.4810295e-01
   1.7667838e-03  -2.9934831e-02  -9.7075540e-04   7.8939897e-03  -7.9217277e-02  -3.7177025e-02   1.2532619e-01   1.3801773e-01   4.1077974e-02  -5.6333361e-02  -9.9105901e-04  -1.8121886e-01  -1.1266149e-01   9.2545176e-02  -1.1039054e-01  -3.1072706e-01  -3.1758899e-01   1.9764744e-01   3.3550650e-01  -1.6111529e-01   1.9228544e-01   2.4653942e-01   2.1480703e-01   5.5117796e-02   1.0330427e-01
  -7.1952197e-03   2.8054893e-02  -1.3411364e-02  -2.8279021e-02  -7.2338091e-03  -2.8320608e-02   9.5873698e-02   3.0020487e-02   1.0104457e-01  -1.2133910e-01  -2.2563959e-02   2.3164378e-02  -4.9902511e-02  -2.1188682e-01  -2.2347068e-01  -4.8703333e-02  -4.8596354e-02  -1.9011937e-01   3.5944059e-01  -2.2877215e-01   1.8068659e-01   1.5694939e-01   4.7389999e-01   1.9224710e-01  -3.5204792e-01
   2.9501897e-03  -4.4081644e-03   1.0173761e-02  -5.4129410e-02   5.3735960e-02   3.2932669e-02  -4.4688861e-02  -7.8879657e-02  -2.5030263e-01   1.1857465e-01  -5.1145850e-02   2.8859585e-01  -8.0890291e-03   1.2932750e-01  -2.1709617e-01  -2.0720840e-01   1.5845172e-01   5.6135153e-02   3.2926795e-02  -6.6963244e-02   1.3207751e-01   2.0237095e-02   1.6975472e-01  -3.6788542e-01  -1.1107478e-01
   7.5444074e-03   2.3291810e-02  -7.5565102e-03  -1.4059706e-02  -1.1218880e-04   2.4292351e-02  -1.1873922e-02  -3.0363058e-02  -6.5277717e-02  -1.3289544e-01   3.3573687e-02  -3.0012528e-02   1.5716338e-01  -1.0622741e-01   1.3256295e-02   4.4741418e-02   2.4762186e-01   4.7892646e-01   3.1089698e-01  -3.3996941e-01   1.5187922e-01  -5.4649172e-01  -1.2364463e-01   2.3034483e-02  -1.5757852e-01
   3.1289175e-03   9.3762749e-03  -2.6877288e-02   1.1792635e-02   3.9205310e-02   5.3716581e-03   1.4669297e-02  -3.7517045e-03   4.2688803e-02  -7.0587860e-02   8.3145231e-02   4.3119136e-02   9.8045137e-02   1.9736293e-02  -9.8807046e-02  -7.5059032e-02   1.6318408e-01   7.4840598e-02   5.4274114e-01   3.7142217e-01  -1.0201525e-01  -3.1992315e-01  -1.1310300e-01   1.5925130e-01  -3.1194984e-01
  -2.2863694e-03  -2.0618152e-02   2.6483278e-02   1.7633738e-03  -3.2293640e-02  -7.5562667e-02   4.1172576e-02  -1.6902334e-02   4.8209197e-02   6.0215602e-02   7.3893826e-02  -6.1748546e-03   1.4256710e-01   1.5689280e-01   4.1742406e-02   4.3901793e-02   1.0244221e-01  -3.0018023e-01  -4.5909245e-02  -6.2501572e-02  -3.1192342e-02   2.2621322e-02   1.0577110e-01  -3.3177096e-02   4.6492264e-01
  -6.5750752e-04   2.3004645e-02  -5.1675912e-03  -2.5223073e-02   1.0165781e-01  -1.9291187e-02  -1.4516383e-02   9.0739490e-02  -8.8898446e-04  -1.8097628e-01  -7.8204260e-02  -3.8063693e-02  -1.6341276e-01  -2.3127540e-01   1.4568234e-01   2.3086452e-01   8.1193602e-02  -1.2139892e-01  -4.8193046e-02   7.6597330e-02  -3.0699024e-01   2.4475763e-01  -4.0687094e-01  -4.0663905e-02  -1.7076620e-01
   3.0624594e-03  -2.9091722e-02  -3.4474814e-02  -5.6514109e-02  -2.1194137e-03  -2.9960809e-02   3.0241187e-02  -4.8774906e-02   8.4973501e-04   1.9655614e-01   4.2360240e-02  -1.1416539e-02  -1.1121324e-01   4.5612404e-02  -4.6105721e-01   1.7992064e-01  -2.3493688e-01   1.9935592e-01  -1.4405584e-01  -6.4350317e-01   4.5483848e-02   2.8918454e-01  -4.4611126e-02  -3.9409927e-01   3.4144115e-01
   3.9634277e-03   5.2411349e-03   7.7537977e-03   1.2626346e-02  -7.1744792e-03   1.5771738e-03   1.6554349e-03  -2.1170425e-02  -3.4014149e-02  -6.2594548e-02  -4.5857810e-02   1.0945942e-01   1.1112425e-01   5.7399702e-02   1.7977569e-01  -3.2383081e-02  -3.3472455e-01  -1.6356784e-02  -1.8348998e-01  -2.0338720e-01  -4.1842394e-01  -3.8375988e-01  -1.3690448e-01  -1.3180462e-01  -2.7838117e-01
  -6.8545345e-03   3.2386168e-02  -7.3634138e-03  -3.7474652e-02  -8.7170936e-02  -1.1306855e-01   5.1282133e-02  -9.6024030e-02   1.4251831e-01   4.0956111e-02   3.8907132e-03   3.1964686e-02   7.3887038e-02  -1.6188455e-01  -1.7183924e-01  -3.2621900e-01  -2.2104571e-01  -5.5252956e-01   7.8265532e-03  -6.3252714e-01   2.4754300e-01   4.1570971e-02   6.3079147e-01  -2.1342506e-01  -3.6549615e-01
  -3.4350506e-03  -9.7750449e-03  -1.1604973e-02   1.4079044e-02  -2.3558318e-02  -7.0935166e-02   9.2561925e-02   7.9918520e-02  -2.1819722e-02  -2.5393325e-02  -6.7659602e-02  -1.8936939e-01  -1.6546398e-01   1.3710701e-01  -5.0461470e-02  -4.3251235e-01  -2.8352530e-01   1.9528075e-01   3.9663802e-01   1.5915214e-02   3.4376017e-01   1.6883681e-01   2.5557809e-01  -3.0245722e-02   2.7674421e-01
  -8.9288697e-03   4.5256512e-02   3.3502700e-04  -3.0996131e-02  -1.7223830e-02  -9.9400484e-03   3.5831811e-02   4.8627860e-02   1.3292140e-01   7.3636545e-04  -7.5612711e-02   1.1291765e-02  -1.0390926e-01  -1.7358383e-01  -3.1591054e-01   1.0579025e-01   8.0789496e-02  -6.9538889e-02   5.0410741e-01  -1.2779237e-01   1.3433108e-01   2.2958244e-01   5.6776020e-01   2.2605512e-01  -3.9820964e-01
   3.4015151e-04   1.0206770e-02   1.1067182e-03  -4.1369630e-02   4.4935469e-02  -1.2613873e-02  -3.9778273e-02  -1.2261651e-02  -2.0001788e-01   2.8269677e-02  -7.6135396e-02   1.6788925e-01  -7.5899703e-02   2.8117909e-01  -1.8966444e-01  -2.2561430e-01  -1.7606897e-02   2.1561218e-01   1.1614792e-01  -1.1915147e-01   3.2100191e-01   1.9810045e-01   2.3311988e-01  -2.0204252e-01  -4.2886508e-02
   8.1173274e-03   2.6919468e-02  -3.6682878e-03  -7.6620326e-03  -9.1175049e-03   1.9818366e-02  -5.7834418e-04  -4.5049551e-02  -5.2851726e-02  -1.4125181e-01   2.6717592e-02  -3.5691452e-02   1.7385168e-01  -9.2752761e-02   2.8429670e-03   3.1981125e-02   2.6603030e-01   4.8420697e-01   3.6465658e-01  -3.3328987e-01   1.8638326e-01  -6.7498786e-01  -1.0646719e-01   1.1305717e-01  -2.0194173e-01
   3.8473325e-03   1.1475665e-02  -2.3461551e-02   1.0365181e-02   3.9821402e-02  -2.5281285e-03   3.2817520e-02   1.1664332e-02   4.5159915e-02  -9.7265350e-02   8.4924060e-02   6.6808710e-02   2.9034541e-02   3.2276338e-02  -1.3383214e-01  -2.7994706e-02   1.0698924e-01   1.0263470e-01   5.3677426e-01   3.7719069e-01  -7.4055037e-02  -3.5006190e-01  -1.7514076e-01   1.3761012e-01  -3.3878629e-01
  -1.1744357e-03  -1.4527841e-02   2.2138238e-02   3.2440049e-03  -2.6614187e-02  -5.3909632e-02   2.7468030e-02  -1.9670196e-02   3.0424233e-02   4.0414482e-02   3.4018654e-02  -6.6185620e-03   1.1205245e-01   1.1365587e-01   5.2102570e-02   7.8506424e-02   7.6583112e-02  -2.5873934e-01  -1.0999780e-01  -1.2228336e-01  -7.7218635e-02   3.9384269e-02   3.1823901e-02  -8.4649227e-02   3.6635621e-01
   5.0794815e-04   1.1786553e-02  -1.2581148e-02  -1.7931379e-02   6.0203947e-02  -3.0716016e-02  -1.3995918e-02   6.2678494e-02  -3.2777496e-02  -1.1152426e-01   3.1897066e-02   2.6841548e-02  -1.4186696e-01  -1.2306864e-01   8.2485669e-02   1.3717212e-01   4.4621975e-02  -7.7672188e-02   1.0953186e-02   1.6326688e-01  -1.4136401e-01   1.7083481e-01  -2.0755726e-01   1.3140546e-02  -3.9441679e-02
  -1.6392033e-03  -2.5459533e-02  -2.1136438e-02  -4.5588811e-02  -2.7557153e-03  -1.8780068e-02   1.1794237e-02  -9.6966359e-03  -1.6946084e-02   1.0975286e-01   5.7920417e-02   2.0869214e-02  -8.0099762e-02  -8.1422057e-03  -2.7084634e-01   1.2762919e-01  -2.5046861e-01   1.5007548e-01  -1.4681060e-01  -3.6349203e-01   3.4483577e-03   2.2791541e-01  -9.0289633e-02  -3.9456161e-01   2.7054001e-01
   5.7823662e-03   1.6584560e-03   1.2094631e-03   9.1111414e-03  -7.8353314e-03  -2.6333829e-03   1.4344488e-02  -6.4364780e-02  -1.0712878e-02  -2.0208324e-02   4.0539183e-03   5.9308405e-02   1.1446722e-01   6.1743614e-02   4.2066558e-02   2.3390807e-03  -2.0382063e-01   5.5446536e-02  -1.5054468e-01  -2.2528644e-01  -2.7045408e-01  -2.6341867e-01  -6.4485226e-02  -1.1103867e-02  -1.5528686e-01
  -2.2734291e-03   2.2107200e-02  -1.1178913e-02  -2.9178185e-02  -7.5288907e-02  -1.0898503e-01   7.3125684e-02  -8.2876073e-02   1.1246436e-01  -7.2990814e-03   4.4975040e-02   5.2610163e-02   1.2124063e-01  -1.9376584e-01  -1.5727355e-01  -2.9248238e-01  -2.5255024e-01  -5.6938209e-01  -9.3347925e-02  -6.4460445e-01   2.4375354e-01  -2.7678960e-03   5.0786777e-01  -1.2856660e-01  -3.2977305e-01
  -6.7300802e-03   3.6454568e-03  -1.7070386e-02   2.0486934e-02   1.5997790e-02  -8.5403621e-02   6.6134883e-02   4.0538942e-02  -6.1012245e-02  -9.4298918e-03  -1.1350366e-01  -1.9172792e-01  -1.9733819e-01   1.5501315e-01   1.7357052e-02  -4.6855525e-01  -2.2822660e-01   1.6038383e-01   4.0617725e-01   1.6996168e-01   4.2569295e-01   8.9937791e-02   2.4670563e-01  -6.4309305e-02   3.9901723e-01
  -8.9990662e-03   5.0380148e-02   9.1570432e-03  -2.8193863e-02  -1.4374243e-02   1.0298322e-02  -1.5143007e-02   5.9151841e-02   1.3336517e-01   7.5726456e-02  -1.0698154e-01   2.1001881e-03  -1.3266157e-01  -1.2560972e-01  -3.4409344e-01   2.0717390e-01   1.8290416e-01   5.0062575e-02   5.3845638e-01  -2.0329482e-02   8.7445144e-02   2.5501667e-01   5.4493043e-01   2.1915884e-01  -3.7301829e-01
  -1.4113998e-03   1.9631701e-02  -5.2965791e-03  -3.1819819e-02   3.7274236e-02  -4.1667767e-02  -3.1502905e-02   4.1034482e-02  -1.5475374e-01  -4.4715102e-02  -7.6820307e-02   8.6353316e-02  -1.1229089e-01   3.8132640e-01  -1.5275072e-01  -2.1508709e-01  -1.4906981e-01   3.1980710e-01   1.7362459e-01  -1.3750983e-01   4.5136877e-01   3.2166307e-01   2.5932076e-01  -4.6478091e-02   3.2926520e-02
   6.9059317e-03   2.4949106e-02  -8.9735610e-04  -3.8664149e-03  -1.5151455e-02   1.4152600e-02   7.8722767e-03  -5.0308651e-02  -3.8339113e-02  -1.3215755e-01   1.1744285e-02  -3.7673115e-02   1.5253650e-01  -7.4865870e-02  -1.1804214e-02   1.6656469e-02   2.4547640e-01   4.2850022e-01   3.7276159e-01  -2.5768093e-01   1.9913654e-01  -6.9972685e-01  -9.3024103e-02   1.7880379e-01  -2.3070930e-01
   4.1746752e-03   1.1320442e-02  -1.7023713e-02   1.1126516e-02   3.6431453e-02   2.5954086e-03   5.4976634e-02   1.5743170e-02   5.1081861e-02  -1.0485116e-01   5.5781424e-02   7.6560074e-02  -4.0247837e-02   4.4947935e-02  -1.4215397e-01   2.8504163e-03   5.3323459e-02   1.1072562e-01   4.5766833e-01   3.2128503e-01  -3.8248510e-02  -3.2643051e-01  -2.2439100e-01   1.0435343e-01  -3.3639584e-01
  -1.6058518e-05  -7.2484574e-03   1.4773280e-02   6.0631571e-03  -1.8860692e-02  -2.1808819e-02   1.5802494e-02  -2.3339423e-02   1.1064821e-02   2.1934502e-02  -1.0752229e-02  -5.5540588e-03   6.3869526e-02   6.3420739e-02   5.6957249e-02   8.4345241e-02   5.1541910e-02  -2.1057018e-01  -1.5574520e-01  -1.5107806e-01  -9.1213953e-02   5.6787302e-02  -3.3688015e-02  -1.0781201e-01   2.3029962e-01
   1.9530392e-03   3.8947650e-04  -1.8367407e-02  -1.1237396e-02   1.7551918e-02  -3.9506011e-02  -1.2309063e-02   3.9735254e-02  -6.3143666e-02  -3.9496567e-02   1.2263772e-01   8.5187159e-02  -1.2750923e-01  -1.3798303e-02   1.4255961e-02   5.3082064e-02  -9.5298141e-03  -3.1595148e-02   5.8135540e-02   2.2952930e-01   1.1515420e-02   9.8244705e-02  -3.2059566e-02   5.0380072e-02   7.4891063e-02
  -6.4162864e-03  -1.9697267e-02  -6.6119985e-03  -2.9879903e-02   6.2433316e-04  -6.6846289e-03  -5.0280210e-03   2.0124899e-02  -2.7259073e-02   2.3415269e-02   6.7199673e-02   3.2179493e-02  -4.2288805e-02  -5.9601047e-02  -9.1057730e-02   7.6484584e-02  -2.1474559e-01   8.3855239e-02  -1.2193387e-01  -6.4600893e-02  -1.9930576e-02   1.6632528e-01  -1.1936663e-01  -3.4842288e-01   1.8013324e-01
   5.9299639e-03  -8.7738172e-04  -3.5142061e-03   8.7066917e-03  -5.7567094e-03  -2.5976318e-03   2.9774094e-02  -9.3368574e-02   1.4591616e-02   1.3405268e-02   5.4241695e-02  -4.2386732e-03   1.0838730e-01   4.5259076e-02  -6.4686767e-02   1.2891429e-02  -5.0955029e-02   1.0246127e-01  -9.8266824e-02  -2.0019851e-01  -1.1662074e-01  -1.3104086e-01   2.6536169e-03   8.5400053e-02  -2.8192363e-02
   1.9086693e-03   1.0532713e-02  -1.2619737e-02  -1.7270350e-02  -5.5624485e-02  -9.5499715e-02   7.5405381e-02  -6.2969772e-02   6.7167499e-02  -3.9769834e-02   7.0659259e-02   6.0888837e-02   1.5782953e-01  -1.9792208e-01  -1.2018441e-01  -2.2751769e-01  -2.5181701e-01  -5.2253846e-01  -1.7201058e-01  -5.7759742e-01   2.0562015e-01  -3.7981577e-02   3.4698271e-01  -3.4095458e-02  -2.6796820e-01
  -8.4289401e-03   1.1817912e-02  -1.8579185e-02   2.6299137e-02   4.0310786e-02  -8.5620452e-02   4.5870522e-02   1.5606960e-02  -8.0171299e-02  -3.5939580e-03  -1.4386135e-01  -1.8963076e-01  -2.0902072e-01   1.4988823e-01   8.2905458e-02  -4.4189557e-01  -1.5540317e-01   1.0539818e-01   3.7517636e-01   2.9309431e-01   4.4963610e-01   1.6829143e-02   2.0845455e-01  -6.1425218e-02   4.6723054e-01
  -8.0725492e-03   4.7105239e-02   1.4157878e-02  -2.1941825e-02  -3.6327413e-03   2.9453966e-02  -5.5094633e-02   6.2458071e-02   1.1229790e-01   1.1153251e-01  -1.2176171e-01  -5.4833626e-03  -1.4135701e-01  -7.4966671e-02  -3.2101345e-01   2.5813560e-01   2.6209646e-01   1.5315182e-01   4.9460571e-01   8.3864033e-02   4.1847344e-02   2.4714397e-01   4.5156952e-01   1.7804495e-01  -3.0502161e-01
  -2.4722697e-03   2.4503675e-02  -9.3972710e-03  -2.4891217e-02   3.0879968e-02  -5.6878957e-02  -2.1159997e-02   8.0596670e-02  -1.1647744e-01  -9.9387602e-02  -6.0849224e-02   3.7297479e-02  -1.2187675e-01   4.3772535e-01  -1.0908360e-01  -1.8530629e-01  -2.3870689e-01   3.7274212e-01   2.0925771e-01  -1.2975537e-01   5.2830708e-01   4.0088380e-01   2.6005256e-01   9.3556911e-02   1.0429150e-01
   4.5813824e-03   1.9336974e-02   8.4098449e-04  -1.6917547e-03  -1.8312553e-02   8.8780182e-03   1.4277489e-02  -4.8704908e-02  -2.2591975e-02  -1.1246701e-01  -7.5684897e-03  -3.6414654e-02   1.0852108e-01  -5.6403419e-02  -2.5514391e-02  -5.8576311e-04   1.9628970e-01   3.3124938e-01   3.4309122e-01  -1.4141845e-01   1.9131854e-01  -6.4932769e-01  -8.3510630e-02   2.1940520e-01  -2.5425170e-01
   4.1430255e-03   9.7307947e-03  -9.2377479e-03   1.3229139e-02   3.0522161e-02   1.5545033e-02   7.6992407e-02   1.1930315e-02   5.8578026e-02  -9.8238135e-02   8.9052152e-03   7.6786381e-02  -1.0112486e-01   5.6005693e-02  -1.2915857e-01   2.1924724e-02   4.6005903e-03   1.0522098e-01   3.3580222e-01   2.3129049e-01  -5.9912979e-03  -2.6447355e-01  -2.5900140e-01   6.1988079e-02  -3.1102910e-01
   8.9669389e-04  -3.0398927e-04   6.5587832e-03   9.5391854e-03  -1.1861204e-02   1.1639834e-02   8.2213335e-03  -2.7274326e-02  -5.3425878e-03   7.9977602e-03  -5.1521500e-02  -4.3433446e-03   1.2815478e-02   1.6173683e-02   5.5822886e-02   6.8735308e-02   3.0746296e-02  -1.6733227e-01  -1.7770373e-01  -1.4917350e-01  -7.8042496e-02   6.7602337e-02  -7.6684748e-02  -1.0374095e-01   8.7304475e-02
   3.3783215e-03  -9.0480269e-03  -2.1464725e-02  -6.6957002e-03  -1.7311307e-02  -4.5032342e-02  -1.1298239e-02   2.5047555e-02  -8.5953284e-02   1.9738869e-02   1.7752598e-01   1.2517602e-01  -1.2160458e-01   7.4660463e-02  -4.4553127e-02  -7.8290926e-03  -6.4593945e-02   1.8327696e-03   8.1379785e-02   2.5873443e-01   1.2351045e-01   4.9314038e-02   8.9795526e-02   6.1393608e-02   1.6107803e-01
  -1.0218257e-02  -1.3277231e-02   5.7680177e-03  -1.4052733e-02   6.4453154e-03   4.1305310e-03  -1.6764194e-02   3.5479783e-02  -2.8263610e-02  -4.5597415e-02   6.8613446e-02   2.3365204e-02  -6.7221148e-03  -1.0028213e-01   4.1268451e-02   4.0034045e-02  -1.4131267e-01   2.2168746e-02  -7.8631621e-02   1.8579268e-01  -1.9757298e-02   1.1305653e-01  -1.3244261e-01  -2.6946876e-01   9.2022563e-02
   4.5952192e-03  -1.8774358e-03  -5.7568356e-03   1.0839198e-02  -1.6271156e-03   4.2018130e-04   4.3083235e-02  -1.0415755e-01   3.5454106e-02   3.2679507e-02   9.4149885e-02  -6.4704566e-02   9.7060100e-02   1.6001135e-02  -1.1994586e-01   3.4762121e-03   8.6347360e-02   1.1459387e-01  -4.4361688e-02  -1.4010349e-01   8.5270153e-03  -1.1895410e-02   5.1151133e-02   1.4621308e-01   7.6406755e-02
   5.0781774e-03   3.7439787e-05  -1.2376044e-02  -4.6944256e-03  -3.2950107e-02  -7.7764032e-02   6.4969396e-02  -4.0049221e-02   1.7246992e-02  -5.6654720e-02   8.1455068e-02   5.9550612e-02   1.8234887e-01  -1.8428557e-01  -7.0964766e-02  -1.5093917e-01  -2.3005412e-01  -4.3890541e-01  -2.2191928e-01  -4.6212493e-01   1.4864594e-01  -6.1261718e-02   1.8601043e-01   5.6798780e-02  -1.9605869e-01
  -8.8295766e-03   1.6072914e-02  -1.7295790e-02   3.0929298e-02   5.1053645e-02  -7.6066000e-02   3.0914718e-02   1.1622651e-03  -8.3103337e-02  -3.9608561e-03  -1.6297525e-01  -1.8396904e-01  -2.0272336e-01   1.2611552e-01   1.3816298e-01  -3.7318006e-01  -7.0282079e-02   4.2268710e-02   3.1373881e-01   3.7991858e-01   4.2791535e-01  -4.6184257e-02   1.5671155e-01  -3.5607246e-02   4.8300276e-01
  -6.6651988e-03   3.8726775e-02   1.6271708e-02  -1.3965986e-02   1.0896411e-02   4.5327250e-02  -8.3184856e-02   5.9845184e-02   7.8107169e-02   1.1721760e-01  -1.2446745e-01  -1.2174939e-02  -1.3530610e-01  -2.6933799e-02  -2.6067656e-01   2.6564274e-01   3.2213344e-01   2.3054715e-01   4.0041293e-01   1.7619918e-01  -5.2603664e-04   2.1869019e-01   3.2601274e-01   1.1169067e-01  -2.1654639e-01
  -2.9872867e-03   2.5505066e-02  -1.1519036e-02  -2.0006615e-02   2.5879454e-02  -6.0957040e-02  -1.0124152e-02   1.0659361e-01  -8.6020568e-02  -1.3606714e-01  -3.5265051e-02   1.3691887e-02  -1.0997922e-01   4.5872403e-01  -6.1621888e-02  -1.4439582e-01  -2.9102595e-01   3.8053374e-01   2.2659218e-01  -1.0395202e-01   5.5816331e-01   4.4458223e-01   2.4442612e-01   2.1348844e-01   1.6270286e-01
   1.7759499e-03   1.1828703e-02   1.5319503e-03  -5.6601155e-04  -1.8921036e-02   5.0242907e-03   1.9563772e-02  -4.3077150e-02  -6.3653287e-03  -8.7370549e-02  -2.7976965e-02  -3.3147493e-02   5.5268864e-02  -4.0426097e-02  -3.7037323e-02  -1.8168782e-02   1.2942100e-01   2.1123139e-01   2.8478156e-01  -1.1787633e-02   1.6713169e-01  -5.5089362e-01  -7.7269110e-02   2.3686381e-01  -2.7792691e-01
   3.7997136e-03   7.3529300e-03  -1.5343099e-03   1.5958243e-02   2.2863529e-02   3.1543273e-02   9.5915555e-02   3.1717769e-03   6.5869011e-02  -8.1171143e-02  -4.3424444e-02   7.1932110e-02  -1.4759287e-01   6.4935538e-02  -1.0159573e-01   3.2677065e-02  -3.8227132e-02   9.1996053e-02   1.9842455e-01   1.3156238e-01   1.7252838e-02  -1.8055737e-01  -2.7516628e-01   1.5316371e-02  -2.6882994e-01
   1.4577945e-03   5.3077632e-03  -9.4472314e-04   1.2985678e-02  -6.8569934e-03   3.9980302e-02   5.2675658e-03  -3.0662370e-02  -1.6058483e-02  -2.8382147e-04  -8.3319170e-02  -4.5457280e-03  -3.1230582e-02  -2.1845897e-02   4.8507343e-02   4.1233066e-02   1.6695302e-02  -1.3396480e-01  -1.7546297e-01  -1.2246094e-01  -4.6046214e-02   6.8616203e-02  -9.2319060e-02  -7.8005989e-02  -4.0655496e-02
   4.6026203e-03  -1.5412562e-02  -2.1940907e-02  -5.0010448e-03  -3.9694876e-02  -4.7619105e-02  -1.2353824e-02   1.9138515e-02  -9.8721419e-02   5.7774304e-02   1.9417259e-01   1.4255257e-01  -1.2221326e-01   1.3130859e-01  -8.6953767e-02  -4.1220626e-02  -1.0869265e-01   1.5492768e-02   7.8748675e-02   2.4774219e-01   1.8547722e-01   3.4175892e-02   1.4929781e-01   4.5269095e-02   2.1585035e-01
  -1.2578570e-02  -7.3861146e-03   1.4088685e-02  -1.2226924e-03   1.3055555e-02   1.2660978e-02  -2.2011628e-02   3.6342103e-02  -2.1005371e-02  -8.9183061e-02   6.2896128e-02  -2.0111116e-04   1.9530998e-02  -1.2606501e-01   1.1242839e-01   2.2775716e-02  -4.8498056e-02  -2.2482030e-02  -2.6192847e-02   3.5436902e-01   2.2119295e-03   7.1941419e-02  -1.3217521e-01  -1.7481545e-01   2.0052106e-02
   2.2895480e-03  -1.2913039e-03  -5.5894182e-03   1.4798748e-02   3.7333647e-03   4.6831984e-03   5.1167236e-02  -9.8095126e-02   4.8200357e-02   3.7456656e-02   1.1829840e-01  -1.1192877e-01   8.5027533e-02  -1.7122524e-02  -1.2270325e-01  -1.7781820e-02   1.8641102e-01   9.3811336e-02   1.0613466e-04  -6.1192181e-02   8.7965951e-02   7.7614618e-02   7.7260032e-02   1.7064683e-01   1.4517179e-01
   6.9634071e-03  -7.9056715e-03  -1.1106032e-02   6.4595940e-03  -1.0694059e-02  -5.9162055e-02   4.7216894e-02  -1.7214924e-02  -2.9739864e-02  -5.9168103e-02   7.9954216e-02   5.1911771e-02   1.9351357e-01  -1.6090418e-01  -1.9666874e-02  -7.5954223e-02  -1.9761635e-01  -3.3732875e-01  -2.4186729e-01  -3.2481305e-01   8.6085329e-02  -7.3155033e-02   4.7490222e-02   1.3458948e-01  -1.2234109e-01
  -8.2042569e-03   1.7496159e-02  -1.4262894e-02   3.3982416e-02   5.0465292e-02  -6.0537229e-02   1.9991383e-02  -6.4843903e-03  -7.3354525e-02  -7.6102650e-03  -1.7378038e-01  -1.7516852e-01  -1.8164701e-01   8.8586564e-02   1.7706496e-01  -2.8037433e-01   2.0998699e-02  -1.8518538e-02   2.3133944e-01   4.2739332e-01   3.7289174e-01  -9.7095431e-02   1.0291791e-01   2.5168380e-04   4.5128485e-01
  -5.1403029e-03   2.7978088e-02   1.6273941e-02  -5.6177214e-03   2.5952568e-02   5.6503526e-02  -9.9561681e-02   5.2834703e-02   3.7687941e-02   1.0215224e-01  -1.1871042e-01  -1.8285160e-02  -1.1951519e-01   1.4889136e-02  -1.7722721e-01   2.3946333e-01   3.6584945e-01   2.7871961e-01   2.7943619e-01   2.4993982e-01  -3.7715623e-02   1.8060343e-01   1.9799030e-01   3.0340794e-02  -1.2410941e-01
  -3.0766858e-03   2.3338048e-02  -1.1954190e-02  -1.6647492e-02   2.2349987e-02  -5.6576065e-02   2.6895734e-04   1.1970790e-01  -6.3155262e-02  -1.5616972e-01  -6.2363182e-03   8.5430803e-03  -8.2270663e-02   4.5269393e-01  -1.3539684e-02  -9.8899425e-02  -3.1175486e-01   3.5084304e-01   2.2893232e-01  -6.7956887e-02   5.4817836e-01   4.6032507e-01   2.1919299e-01   3.0976835e-01   2.0288671e-01
  -9.8259669e-04   3.8866357e-03   1.1465927e-03  -2.0124374e-04  -1.7470612e-02   3.1629546e-03   2.4512236e-02  -3.5960040e-02   9.4889061e-03  -6.0714382e-02  -4.6802694e-02  -2.9342792e-02   3.7547706e-03  -2.9115785e-02  -4.6888451e-02  -3.4409694e-02   5.5264064e-02   8.4896311e-02   2.0749449e-01   1.0823904e-01   1.3217506e-01  -4.2851172e-01  -7.3315706e-02   2.3496819e-01  -3.0277290e-01
   3.2095204e-03   4.6714235e-03   5.0031750e-03   1.8726874e-02   1.3928231e-02   4.6749575e-02   1.0990234e-01  -8.1416196e-03   7.1521299e-02  -5.6661894e-02  -9.1328112e-02   6.5507593e-02  -1.7677097e-01   7.1679140e-02  -6.6482436e-02   3.8101293e-02  -7.4529199e-02   7.6381381e-02   6.7589084e-02   4.0893117e-02   2.9947730e-02  -8.9782211e-02  -2.7008520e-01  -3.0053439e-02  -2.1562530e-01
   1.6886326e-03   9.0802951e-03  -6.7770164e-03   1.5816038e-02  -4.0070893e-03   5.9435542e-02   6.4049699e-03  -3.2692570e-02  -2.0028829e-02  -3.3965791e-03  -1.0410139e-01  -7.3100449e-03  -6.2920891e-02  -4.7569789e-02   3.5342372e-02   1.1133449e-02   1.0696288e-02  -1.1025528e-01  -1.5235168e-01  -7.9970647e-02  -4.4380046e-03   5.9923112e-02  -8.2186668e-02  -3.8946985e-02  -1.4034227e-01
   5.5170534e-03  -1.8384280e-02  -2.0597853e-02  -6.0376668e-03  -4.8528259e-02  -4.8173282e-02  -1.6231478e-02   2.1038680e-02  -1.0220923e-01   7.2410062e-02   1.7962532e-01   1.3858483e-01  -1.2586725e-01   1.5412599e-01  -1.1062027e-01  -4.9396950e-02  -1.3518905e-01   8.3952823e-03   5.4735192e-02   2.0463312e-01   2.0250346e-01   5.2628044e-02   1.5350742e-01   7.8635329e-03   2.4193769e-01
  -1.3491900e-02  -2.8571175e-03   1.7710448e-02   6.9941991e-03   1.8992362e-02   1.8770399e-02  -2.1098492e-02   2.6127033e-02  -8.4853194e-03  -1.0640375e-01   5.2385168e-02  -3.0737072e-02   3.2274102e-02  -1.3625692e-01   1.2645032e-01   2.2785277e-02   4.4563442e-02  -4.6030155e-02   2.6972299e-02   4.3560815e-01   3.9035534e-02   4.3381572e-02  -1.2260896e-01  -8.1448653e-02  -2.9768690e-02
  -3.3183982e-04   5.9181656e-04  -3.5806204e-03   1.9799619e-02   9.4501419e-03   8.4169913e-03   5.2673987e-02  -7.9952466e-02   5.1763881e-02   3.1400141e-02   1.2535316e-01  -1.4152011e-01   7.5989841e-02  -4.6039382e-02  -8.5379827e-02  -4.1762614e-02   2.4132058e-01   5.0407982e-02   3.0006988e-02   1.9630868e-02   1.1909736e-01   1.3001630e-01   8.4748318e-02   1.6474985e-01   1.7603202e-01
   7.5860598e-03  -1.2748731e-02  -9.2841659e-03   1.4840803e-02   8.6903328e-03  -4.1602075e-02   2.6454374e-02   2.6762884e-03  -6.8273500e-02  -4.9713777e-02   7.0497878e-02   4.1732431e-02   1.9086701e-01  -1.3399733e-01   2.3805815e-02  -1.1249200e-02  -1.6330348e-01  -2.3082788e-01  -2.3327226e-01  -1.8828924e-01   2.8453651e-02  -7.6578943e-02  -5.8614537e-02   1.9305617e-01  -5.1423171e-02
  -6.8006361e-03   1.6912656e-02  -1.0369002e-02   3.5217977e-02   4.1108216e-02  -4.2134222e-02   1.1677330e-02  -1.0639456e-02  -5.4041748e-02  -1.2562441e-02  -1.7801239e-01  -1.6332559e-01  -1.4947840e-01   4.2425587e-02   1.9563794e-01  -1.7858136e-01   1.1197104e-01  -6.8834714e-02   1.3685375e-01   4.3490168e-01   2.9644596e-01  -1.3565189e-01   5.4744343e-02   3.5124292e-02   3.7927931e-01
  -3.7242203e-03   1.6942183e-02   1.4800754e-02   2.1212112e-03   3.9065462e-02   6.2294561e-02  -1.0513588e-01   4.2993308e-02  -3.4162808e-03   7.5228274e-02  -1.0715467e-01  -2.3752509e-02  -9.8307911e-02   4.8409848e-02  -8.4037062e-02   1.9061618e-01   3.9496822e-01   2.9852251e-01   1.5100946e-01   3.0060676e-01  -6.7812270e-02   1.4162142e-01   8.8793209e-02  -5.5654509e-02  -3.9344129e-02
  -2.8401351e-03   1.8714522e-02  -1.0977608e-02  -1.4382881e-02   2.0292227e-02  -4.6286670e-02   8.8235766e-03   1.2110950e-01  -4.6814586e-02  -1.6192697e-01   2.1095072e-02   1.5223983e-02  -4.4452204e-02   4.2767610e-01   3.1984511e-02  -5.3799444e-02  -3.0729728e-01   2.9228599e-01   2.1935509e-01  -2.8789681e-02   5.0613356e-01   4.5442576e-01   1.8916635e-01   3.8013216e-01   2.2240086e-01
  -3.3085183e-03  -3.3561624e-03  -2.9250052e-04  -4.7152824e-04  -1.4565422e-02   3.4968253e-03   2.9565768e-02  -2.9240413e-02   2.3944997e-02  -3.5271695e-02  -6.1921259e-02  -2.6304969e-02  -3.7895293e-02  -2.3679564e-02  -5.5839997e-02  -4.8091346e-02  -1.7161981e-02  -3.4671401e-02   1.2077139e-01   2.0204151e-01   9.2065068e-02  -3.0208038e-01  -7.0760963e-02   2.1832282e-01  -3.2649503e-01
   2.4549067e-03   2.0141506e-03   9.6885048e-03   2.1063467e-02   4.1640080e-03   5.8539773e-02   1.1806814e-01  -2.0248556e-02   7.4665374e-02  -2.7343988e-02  -1.2804308e-01   5.9596835e-02  -1.8878910e-01   7.6150958e-02  -3.0362021e-02   4.0920957e-02  -1.0322324e-01   6.2793233e-02  -4.0856091e-02  -2.8748591e-02   3.2879048e-02  -4.3878497e-03  -2.4375429e-01  -6.8924624e-02  -1.5680923e-01
   1.6760855e-03   1.0931030e-02  -1.0501506e-02   1.7627044e-02  -2.8532557e-03   6.8663511e-02   1.0475110e-02  -3.2686967e-02  -1.7631088e-02  -2.8478811e-03  -1.1384799e-01  -1.3055501e-02  -8.0644067e-02  -6.0456556e-02   1.7415325e-02  -1.4269821e-02   1.2774662e-02  -9.2846624e-02  -1.1410691e-01  -3.1542006e-02   3.8579643e-02   4.3976384e-02  -5.1770907e-02   4.0818251e-03  -2.0646254e-01
   6.0596124e-03  -1.8225813e-02  -1.8519272e-02  -9.0689027e-03  -4.5350770e-02  -4.7743084e-02  -2.3058363e-02   2.9029547e-02  -9.9487807e-02   6.6169678e-02   1.4578579e-01   1.1787497e-01  -1.2912466e-01   1.4728871e-01  -1.1596715e-01  -3.8505243e-02  -1.4198580e-01  -1.6016210e-02   1.6993385e-02   1.4444922e-01   1.8772351e-01   9.6873421e-02   1.1820480e-01  -4.1029824e-02   2.4591669e-01
  -1.3255167e-02  -1.5729705e-04   1.6995587e-02   1.0262830e-02   2.3178403e-02   2.2804706e-02  -1.5554297e-02   9.8927917e-03   5.3990267e-03  -1.0131679e-01   4.0152921e-02  -6.0230394e-02   3.0535253e-02  -1.3256324e-01   9.8319350e-02   3.4535468e-02   1.2140291e-01  -5.0973581e-02   7.4042994e-02   4.4340794e-01   8.0912846e-02   2.5702004e-02  -1.0823178e-01  -3.3523464e-03  -5.7926108e-02
  -2.6360859e-03   3.2620373e-03  -5.4066774e-04   2.5043635e-02   1.4704528e-02   1.0222343e-02   4.7739919e-02  -5.5966250e-02   4.7195575e-02   2.0064101e-02   1.1711765e-01  -1.5359740e-01   7.2064123e-02  -6.4836705e-02  -2.7123169e-02  -6.0672518e-02   2.5364271e-01  -1.2983876e-03   4.4834132e-02   8.7633504e-02   1.0913921e-01   1.4578139e-01   8.1606699e-02   1.3742083e-01   1.7502752e-01
   7.1705931e-03  -1.4696919e-02  -7.1839240e-03   1.9725385e-02   2.3476619e-02  -2.5968760e-02   6.1885518e-03   1.7114481e-02  -9.4451307e-02  -3.1718052e-02   5.8157519e-02   3.2719568e-02   1.7538060e-01  -1.0802335e-01   5.0770579e-02   3.7574629e-02  -1.3391333e-01  -1.2893033e-01  -1.9898554e-01  -7.0408511e-02  -1.6438426e-02  -7.5660785e-02  -1.3076325e-01   2.2908186e-01   1.2885423e-02
  -4.8526000e-03   1.4931844e-02  -6.3491275e-03   3.4530688e-02   2.5678319e-02  -2.3313131e-02   4.6189821e-03  -1.3969357e-02  -2.7931468e-02  -1.7600187e-02  -1.7656537e-01  -1.4845920e-01  -1.1000238e-01  -7.3041888e-03   1.9239135e-01  -7.9870190e-02   1.9637451e-01  -1.0345911e-01   3.8267915e-02   4.0456925e-01   2.0956611e-01  -1.6273419e-01   1.7033602e-02   6.0435145e-02   2.7578607e-01
  -2.5347705e-03   7.0516710e-03   1.2363690e-02   8.6143723e-03   4.8499191e-02   6.2617078e-02  -1.0134245e-01   3.1837985e-02  -4.0900873e-02   4.4219147e-02  -9.1716068e-02  -2.8276298e-02  -7.5081905e-02   7.2800017e-02   7.2310269e-03   1.3002202e-01   4.1014374e-01   2.9374301e-01   3.0279573e-02   3.2623291e-01  -8.9072723e-02   1.0805750e-01   1.2034307e-02  -1.3682691e-01   3.0013407e-02
  -2.3633097e-03   1.2351923e-02  -8.8595696e-03  -1.2880198e-02   1.9625655e-02  -3.2428601e-02   1.4559587e-02   1.1243564e-01  -3.5401716e-02  -1.5608377e-01   4.2693565e-02   2.7756777e-02  -1.9918482e-03   3.9105029e-01   7.2064508e-02  -1.2575808e-02  -2.8419247e-01   2.1388096e-01   2.0067354e-01   7.9365813e-03   4.3994553e-01   4.3202985e-01   1.5764473e-01   4.2372417e-01   2.2123119e-01
  -4.9676446e-03  -9.1118826e-03  -2.6733647e-03  -1.3062091e-03  -1.0850582e-02   5.9332667e-03   3.4739027e-02  -2.4029070e-02   3.5846075e-02  -1.2940035e-02  -7.1759842e-02  -2.4924771e-02  -6.4481112e-02  -2.4291720e-02  -6.4077682e-02  -5.8753966e-02  -8.0697256e-02  -1.3817476e-01   3.3476541e-02   2.6013210e-01   5.1496084e-02  -1.8658033e-01  -6.9003939e-02   1.9159043e-01  -3.4464599e-01
   1.6315662e-03  -4.3040456e-04   1.2219137e-02   2.2604388e-02  -5.8843557e-03   6.5538801e-02   1.2031994e-01  -3.2014524e-02   7.5095119e-02   4.3109622e-03  -1.5002147e-01   5.4800682e-02  -1.8619557e-01   7.8080326e-02   1.2552305e-03   4.3526108e-02  -1.2254051e-01   5.4327951e-02  -1.1740867e-01  -7.2248074e-02   2.8125114e-02   6.7170383e-02  -1.9937404e-01  -9.7343386e-02  -9.7262741e-02
   1.5189935e-03   1.1105488e-02  -1.2086024e-02   1.8248833e-02  -2.6922947e-03   6.8313645e-02   1.6108215e-02  -3.0217468e-02  -1.0292980e-02  -5.9371536e-04  -1.1382199e-01  -2.1434439e-02  -8.5511512e-02  -6.1843159e-02  -3.3622866e-03  -3.0561257e-02   2.1801704e-02  -7.7255646e-02  -6.7633718e-02   1.4049065e-02   7.6823391e-02   2.4526920e-02  -8.4942561e-03   4.2316599e-02  -2.4010864e-01
   6.2120849e-03  -1.5611436e-02  -1.6676428e-02  -1.3023923e-02  -3.3255051e-02  -4.7140191e-02  -3.2403803e-02   4.0958064e-02  -9.4578321e-02   4.4498087e-02   1.0554211e-01   8.6420171e-02  -1.2954627e-01   1.1823553e-01  -1.0519789e-01  -1.6047299e-02  -1.3024713e-01  -5.1678642e-02  -2.6060404e-02   8.4074510e-02   1.5643994e-01   1.5456693e-01   6.1359631e-02  -9.0474844e-02   2.3558506e-01
  -1.2306069e-02   5.8645529e-04   1.2969822e-02   9.2086986e-03   2.5029168e-02   2.5222561e-02  -7.5067034e-03  -7.1970323e-03   1.6861566e-02  -8.0686282e-02   2.9118354e-02  -8.2273137e-02   1.6300550e-02  -1.1810348e-01   4.7386607e-02   5.1397622e-02   1.7063946e-01  -4.3790378e-02   1.1017794e-01   4.0224125e-01   1.1778926e-01   1.6280182e-02  -9.2944867e-02   5.0406301e-02  -6.9318616e-02
  -4.1424855e-03   6.1134385e-03   2.7006780e-03   2.9781782e-02   1.8843424e-02   9.3803261e-03   3.7579105e-02  -3.2205085e-02   3.6959084e-02   9.0607262e-03   9.7563057e-02  -1.5118884e-01   7.3573689e-02  -7.0537437e-02   3.2350870e-02  -6.9462415e-02   2.3264212e-01  -4.7070953e-02   4.7090138e-02   1.3224002e-01   7.0254186e-02   1.3155178e-01   7.6524627e-02   9.7416114e-02   1.5265946e-01
   6.0324067e-03  -1.4396719e-02  -4.9583235e-03   2.0939810e-02   3.2616798e-02  -1.2577129e-02  -1.0803310e-02   2.4476259e-02  -1.0618078e-01  -9.1872955e-03   4.7376221e-02   2.7799135e-02   1.4955429e-01  -8.5768604e-02   5.5717052e-02   6.7312495e-02  -1.1396767e-01  -3.9275069e-02  -1.4329188e-01   1.7193240e-02  -4.3323144e-02  -7.4562285e-02  -1.7184098e-01   2.4244857e-01   6.6668613e-02
  -2.5918001e-03   1.2022322e-02  -2.7954314e-03   3.1948123e-02   6.8735337e-03  -5.9538576e-03  -2.3407934e-03  -1.8215038e-02   2.3477897e-03  -2.2045205e-02  -1.6993408e-01  -1.3077980e-01  -6.6896438e-02  -5.5912539e-02   1.6866681e-01   6.8682071e-03   2.6865461e-01  -1.2013588e-01  -5.7757455e-02   3.4155897e-01   1.2190490e-01  -1.7976185e-01  -7.4698212e-03   7.0374606e-02   1.5095450e-01
  -1.6151655e-03  -8.4048074e-04   9.3595835e-03   1.3537594e-02   5.3217829e-02   5.7853446e-02  -8.9945413e-02   2.0814560e-02  -7.1654920e-02   1.5325834e-02  -7.3894827e-02  -3.1510676e-02  -5.2257426e-02   8.8218492e-02   8.7459497e-02   6.7515578e-02   4.1122578e-01   2.6979519e-01  -7.1806266e-02   3.2748233e-01  -1.0014089e-01   8.3807211e-02  -2.5389260e-02  -2.0534520e-01   7.9369437e-02
  -1.7234434e-03   4.9639166e-03  -5.8705391e-03  -1.1902635e-02   2.0196715e-02  -1.7043093e-02   1.6767191e-02   9.5729459e-02  -2.7109418e-02  -1.4161606e-01   5.5680095e-02   4.1054045e-02   4.0084905e-02   3.4924001e-01   1.0435259e-01   2.2676606e-02  -2.4861391e-01   1.2455704e-01   1.7542683e-01   3.8370888e-02   3.5722749e-01   3.9724809e-01   1.2672846e-01   4.4108371e-01   2.0135602e-01
  -5.8635043e-03  -1.2924501e-02  -5.7861799e-03  -2.6074581e-03  -6.9446506e-03   1.0138610e-02   3.9634358e-02  -2.0703205e-02   4.4043807e-02   5.1289293e-03  -7.5334707e-02  -2.5591078e-02  -7.3551920e-02  -3.0105871e-02  -7.0935101e-02  -6.6725992e-02  -1.3025514e-01  -2.2000500e-01  -4.6670234e-02   2.7985808e-01   1.3809358e-02  -9.1851525e-02  -6.7663851e-02   1.5899467e-01  -3.5189750e-01
   8.3816218e-04  -2.5747827e-03   1.2610281e-02   2.3100169e-02  -1.5567822e-02   6.7452348e-02   1.1717168e-01  -4.2800570e-02   7.3197225e-02   3.5932160e-02  -1.5659505e-01   5.0508199e-02  -1.7308501e-01   7.7115745e-02   2.4362600e-02   4.7792639e-02  -1.3030726e-01   5.2456021e-02  -1.5843027e-01  -9.0246520e-02   1.8517294e-02   1.2050419e-01  -1.4265383e-01  -1.1306676e-01  -4.1162353e-02
   1.2914010e-03   1.0063729e-02  -1.1768414e-02   1.7753976e-02  -2.8357694e-03   6.0464082e-02   2.2036307e-02  -2.5214872e-02  -1.9364197e-05   1.4738761e-03  -1.0602246e-01  -3.1501549e-02  -8.0293719e-02  -5.4335363e-02  -2.4418659e-02  -3.6277572e-02   3.5786002e-02  -5.9569046e-02  -1.9936630e-02   5.0300030e-02   1.0634746e-01   5.5942831e-03   3.9558671e-02   6.8878503e-02  -2.4674204e-01
   6.0069667e-03  -1.1481003e-02  -1.5680131e-02  -1.6817669e-02  -1.5975011e-02  -4.6728632e-02  -4.3351638e-02   5.4298477e-02  -9.1070541e-02   1.4034776e-02   6.9930282e-02   5.0141648e-02  -1.2595736e-01   7.5185018e-02  -8.1948562e-02   1.0967351e-02  -1.0306576e-01  -9.1804862e-02  -6.6721955e-02   3.7543569e-02   1.2177402e-01   2.1176438e-01  -1.3330762e-03  -1.3056933e-01   2.1725151e-01
  -1.1086012e-02  -4.6639148e-04   6.9858465e-03   5.0613330e-03   2.4470698e-02   2.6323317e-02   8.7745314e-04  -2.0968980e-02   2.3040889e-02  -5.1966536e-02   2.1317989e-02  -9.3253017e-02  -6.2674617e-03  -9.6586251e-02  -8.0316008e-03   6.7472118e-02   1.8711920e-01  -3.2231358e-02   1.3259942e-01   3.3920631e-01   1.4162741e-01   1.2351474e-02  -7.9291211e-02   7.6430952e-02  -7.0914834e-02
  -4.6013456e-03   8.5645481e-03   5.4471527e-03   3.3372901e-02   2.1459480e-02   5.9858787e-03   2.4035435e-02  -1.3402114e-02   2.4136670e-02   2.6703393e-03   7.1936488e-02  -1.3864741e-01   7.9314616e-02  -6.3256226e-02   7.7512553e-02  -6.6261189e-02   1.9059930e-01  -7.6011125e-02   4.0653470e-02   1.4802640e-01   1.5462254e-02   9.7884191e-02   7.6032439e-02   5.1640241e-02   1.2049014e-01
   4.4764134e-03  -1.2599007e-02  -2.7370667e-03   1.8807367e-02   3.5840010e-02  -1.4938362e-03  -2.2628148e-02   2.4632092e-02  -1.0360169e-01   1.3828865e-02   4.0819817e-02   2.8458389e-02   1.1695005e-01  -6.8521705e-02   3.8096009e-02   7.7077246e-02  -1.0551212e-01   3.1887113e-02  -7.2454974e-02   7.0326478e-02  -4.9568915e-02  -7.6486094e-02  -1.8661189e-01   2.3539134e-01   1.0671231e-01
  -2.5041146e-04   8.5765281e-03  -1.5498367e-04   2.7632272e-02  -1.2707393e-02   8.5920334e-03  -1.0107382e-02  -2.4041596e-02   3.4139079e-02  -2.5564192e-02  -1.5856218e-01  -1.1086285e-01  -2.3684936e-02  -9.9404090e-02   1.2857769e-01   7.5935699e-02   3.2441786e-01  -1.1917254e-01  -1.4620275e-01   2.5395764e-01   4.1248534e-02  -1.8822265e-01  -1.7861409e-02   6.1883985e-02   1.6123100e-02
  -9.6527993e-04  -6.3510937e-03   6.0850840e-03   1.6838126e-02   5.2865404e-02   4.8729723e-02  -7.2905921e-02   1.1287762e-02  -9.3739775e-02  -7.0897368e-03  -5.5085743e-02  -3.3243162e-02  -3.1412483e-02   9.5520026e-02   1.5060583e-01   1.1250370e-02   3.9770995e-01   2.3274212e-01  -1.4845031e-01   3.0750974e-01  -1.0039669e-01   7.0550353e-02  -2.2426734e-02  -2.5553898e-01   1.0679553e-01
  -9.9147109e-04  -2.7603783e-03  -2.2764827e-03  -1.1299165e-02   2.1786149e-02  -1.7937722e-03   1.5052084e-02   7.3306064e-02  -2.0182505e-02  -1.2149488e-01   5.8368881e-02   5.1117137e-02   7.7379038e-02   3.0747421e-01   1.2714276e-01   5.1054178e-02  -2.0595004e-01   3.2705978e-02   1.4594810e-01   6.0468901e-02   2.6487774e-01   3.5330235e-01   9.7533226e-02   4.3402253e-01   1.6621894e-01
  -6.0079803e-03  -1.4632844e-02  -9.3377687e-03  -4.1985912e-03  -3.3807443e-03   1.5580094e-02   4.3547185e-02  -1.9066923e-02   4.7595044e-02   1.8436039e-02  -7.2319765e-02  -2.8236146e-02  -6.5042404e-02  -3.9368101e-02  -7.5068814e-02  -7.2958098e-02  -1.6282051e-01  -2.7775691e-01  -1.1346332e-01   2.6428872e-01  -1.9006102e-02  -2.2863520e-02  -6.6340857e-02   1.2405794e-01  -3.4328693e-01
   1.6237639e-04  -4.3767860e-03   1.1101101e-02   2.2437835e-02  -2.4191003e-02   6.4776810e-02   1.0954342e-01  -5.2219749e-02   6.9732208e-02   6.5311072e-02  -1.4938783e-01   4.5367622e-02  -1.5416681e-01   7.3072613e-02   3.6832423e-02   5.4906769e-02  -1.2458725e-01   5.6946112e-02  -1.6527495e-01  -8.7244514e-02   7.3731109e-03   1.5501890e-01  -8.0544926e-02  -1.1573129e-01   8.3809795e-03
   1.0273935e-03   8.3682847e-03  -9.9412434e-03   1.6427508e-02  -2.7655862e-03   4.8008293e-02   2.7290876e-02  -1.8038358e-02   1.1112150e-02   1.9605480e-03  -9.2857847e-02  -4.1979875e-02  -6.8403647e-02  -4.1241013e-02  -4.2846182e-02  -3.2328623e-02   5.2159775e-02  -3.7640407e-02   2.2706423e-02   7.3536007e-02   1.2521347e-01  -9.4196016e-03   8.4545694e-02   7.9708391e-02  -2.3409669e-01
   5.5275459e-03  -6.8893502e-03  -1.5713451e-02  -1.9629715e-02   2.8069467e-03  -4.6417225e-02  -5.4591101e-02   6.6243491e-02  -9.1150723e-02  -1.8761244e-02   4.6386248e-02   1.3937828e-02  -1.1817887e-01   2.5468576e-02  -5.0977433e-02   3.7122242e-02  -6.4433217e-02  -1.3057177e-01  -9.8825826e-02   1.2907792e-02   9.2348930e-02   2.5553290e-01  -5.8370649e-02  -1.5383118e-01   1.9377372e-01
  -9.9442067e-03  -2.9427790e-03   4.3821201e-04  -6.8367291e-04   2.1879531e-02   2.6130441e-02   7.8241327e-03  -2.8841687e-02   2.2538731e-02  -2.1814522e-02   1.7491044e-02  -9.2759785e-02  -3.1937461e-02  -7.1709287e-02  -5.4275324e-02   7.8609487e-02   1.7181242e-01  -2.3010710e-02   1.4043332e-01   2.7789075e-01   1.4789465e-01   1.1484048e-02  -6.8225313e-02   7.6620272e-02  -6.9608201e-02
  -4.0167725e-03   1.0164801e-02   7.2115608e-03   3.5339614e-02   2.2424350e-02   8.8279031e-04   9.1814858e-03  -2.3081284e-03   1.1673763e-02   3.0836647e-03   4.5941374e-02  -1.2036098e-01   8.7148185e-02  -4.5776614e-02   9.9849187e-02  -5.1958354e-02   1.3970116e-01  -8.2526291e-02   2.9365184e-02   1.3479835e-01  -4.4014858e-02   5.6829691e-02   8.2913398e-02   4.7408012e-03   8.8556993e-02
   2.7354493e-03  -9.9186171e-03  -6.6896154e-04   1.4075688e-02   3.3750575e-02   7.3286416e-03  -2.8512809e-02   1.9165025e-02  -8.9208719e-02   3.3682056e-02   3.8920733e-02   3.4465528e-02   8.1354047e-02  -5.6371672e-02   2.8112777e-03   6.8397417e-02  -1.0797303e-01   8.0116146e-02   5.0577048e-03   9.2148198e-02  -3.5613663e-02  -8.3040014e-02  -1.8102810e-01   2.1179179e-01   1.3186172e-01
   1.9500580e-03   4.9378792e-03   1.2920176e-03   2.1868770e-02  -3.0676799e-02   1.9476782e-02  -1.9302206e-02  -3.1137508e-02   6.4777275e-02  -2.8046699e-02  -1.4299441e-01  -8.9654615e-02   1.6243972e-02  -1.3477683e-01   7.8328513e-02   1.2460493e-01   3.6080010e-01  -1.0276952e-01  -2.2368133e-01   1.5199809e-01  -2.7016285e-02  -1.8938625e-01  -1.5191154e-02   3.4356382e-02  -1.1665658e-01
  -5.6328597e-04  -9.4510171e-03   2.7614905e-03   1.8680844e-02   4.7729656e-02   3.6224432e-02  -5.2295199e-02   4.4722729e-03  -1.0631468e-01  -2.0595250e-02  -3.6734389e-02  -3.3480215e-02  -1.3528371e-02   9.5967068e-02   1.9374822e-01  -3.2565523e-02   3.6927075e-01   1.8867201e-01  -1.9674137e-01   2.7142651e-01  -9.0348756e-02   6.8098830e-02   1.6854331e-02  -2.8419302e-01   1.1267873e-01
  -2.3056465e-04  -1.0186949e-02   1.6705028e-03  -1.0991507e-02   2.4107119e-02   1.2088723e-02   9.3792271e-03   4.7552260e-02  -1.3094165e-02  -9.8503053e-02   5.0272438e-02   5.5177138e-02   1.0630202e-01   2.6963051e-01   1.3932614e-01   7.2576036e-02  -1.6051520e-01  -5.4245810e-02   1.1450366e-01   7.3736007e-02   1.6878026e-01   3.0266182e-01   7.0388942e-02   4.0544342e-01   1.2009596e-01
  -5.4855486e-03  -1.4317806e-02  -1.2980921e-02  -5.8057336e-03  -5.6112096e-04   2.1565661e-02   4.5631113e-02  -1.8573502e-02   4.5965505e-02   2.7044153e-02  -6.3117686e-02  -3.2471152e-02  -4.0792389e-02  -4.9644451e-02  -7.4896436e-02  -7.8732747e-02  -1.7729122e-01  -3.1152442e-01  -1.6247970e-01   2.2060283e-01  -4.6025659e-02   1.9596276e-02  -6.4339145e-02   8.9523795e-02  -3.1532062e-01
  -3.3188717e-04  -5.7813352e-03   8.0609460e-03   2.0671867e-02  -3.1093455e-02   5.8474411e-02   9.8556674e-02  -5.9863398e-02   6.5554509e-02   9.0526133e-02  -1.3162071e-01   3.7835062e-02  -1.3394397e-01   6.6186890e-02   3.8600772e-02   6.5280541e-02  -1.0445974e-01   6.6077917e-02  -1.4318934e-01  -6.9416976e-02  -1.7255784e-03   1.7319774e-01  -1.9941912e-02  -1.0678406e-01   4.9738489e-02
   7.2623909e-04   6.5863852e-03  -7.0739328e-03   1.4704059e-02  -2.2085826e-03   3.4058884e-02   3.1290751e-02  -9.4731755e-03   2.1410425e-02   2.9800834e-04  -7.6986242e-02  -5.1524278e-02  -5.3033394e-02  -2.6055927e-02  -5.5817700e-02  -2.1039968e-02   6.7956254e-02  -1.1671949e-02   5.5326186e-02   8.2902296e-02   1.3312846e-01  -1.8369986e-02   1.1965414e-01   7.4056462e-02  -2.1028505e-01
   4.8912604e-03  -2.8323785e-03  -1.6621029e-02  -2.1074374e-02   1.9942192e-02  -4.5821449e-02  -6.4583813e-02   7.4046947e-02  -9.5304493e-02  -4.8510781e-02   3.7996188e-02  -1.8766958e-02  -1.0657148e-01  -2.5216422e-02  -1.7501001e-02   5.9025539e-02  -1.8687543e-02  -1.6422068e-01  -1.1827471e-01   1.1313464e-02   7.1885315e-02   2.7606290e-01  -1.0229805e-01  -1.5589847e-01   1.6413580e-01
  -9.0891555e-03  -6.3396663e-03  -5.4440943e-03  -6.5482532e-03   1.7963237e-02   2.4447429e-02   1.2217397e-02  -2.9983774e-02   1.5651987e-02   4.7675657e-03   1.7073659e-02  -8.3229733e-02  -5.5600764e-02  -4.6800063e-02  -8.4014850e-02   8.2685859e-02   1.3072256e-01  -2.0264718e-02   1.3438954e-01   2.3447583e-01   1.3606795e-01   1.1791021e-02  -5.9521045e-02   5.6891437e-02  -7.0613095e-02
  -2.6162695e-03   1.0679458e-02   7.7237187e-03   3.5424352e-02   2.1870453e-02  -4.5867215e-03  -4.9855329e-03   4.6780057e-04   1.7891358e-03   1.0306659e-02   2.4936056e-02  -9.9917785e-02   9.4744734e-02  -2.2670081e-02   9.8649554e-02  -2.9217104e-02   8.9768179e-02  -6.6880180e-02   1.6001373e-02   9.6978665e-02  -9.9761117e-02   1.9621685e-02   9.6158716e-02  -4.0225503e-02   6.3848304e-02
   9.6220645e-04  -6.7580690e-03   1.1082870e-03   7.7872077e-03   2.7767790e-02   1.4061829e-02  -2.8912701e-02   1.0934350e-02  -6.7315635e-02   4.7392970e-02   4.0263246e-02   4.4121041e-02   4.5953062e-02  -4.8587410e-02  -4.1131612e-02   4.5034755e-02  -1.1819893e-01   1.0351103e-01   7.9262835e-02   9.1194220e-02  -5.3952461e-03  -9.4060099e-02  -1.6270130e-01   1.7617339e-01   1.4357707e-01
   3.8218757e-03   1.3883232e-03   1.4594337e-03   1.5035089e-02  -4.5005469e-02   2.6332156e-02  -3.0209059e-02  -3.8559134e-02   9.1817115e-02  -2.9544895e-02  -1.2385178e-01  -6.8311935e-02   4.9677293e-02  -1.6024219e-01   2.5003132e-02   1.5262403e-01   3.7666692e-01  -7.4325217e-02  -2.8808475e-01   4.6673420e-02  -8.0230338e-02  -1.8421120e-01  -2.5677488e-03  -1.0812623e-02  -2.3563506e-01
  -3.7469823e-04  -1.0365793e-02  -4.3397525e-04   1.9378301e-02   3.8655672e-02   2.1500001e-02  -3.0212833e-02   1.2743991e-03  -1.0945730e-01  -2.4611064e-02  -2.0289482e-02  -3.2400526e-02   7.6989153e-04   9.0970205e-02   2.1661118e-01  -5.9711675e-02   3.2623476e-01   1.4332061e-01  -2.1708790e-01   2.2537786e-01  -7.1895679e-02   7.4829487e-02   8.4039905e-02  -2.9058611e-01   9.9291444e-02
   5.0701535e-04  -1.6768787e-02   5.7388392e-03  -1.0959226e-02   2.6796040e-02   2.3823877e-02   1.1163014e-04   2.0704460e-02  -4.6505198e-03  -7.5096433e-02   3.2037329e-02   5.1753431e-02   1.2426146e-01   2.3817946e-01   1.4027290e-01   8.7869020e-02  -1.1542734e-01  -1.3023813e-01   8.3442046e-02   7.8780086e-02   7.3686312e-02   2.4716378e-01   4.5116322e-02   3.5914144e-01   6.7435349e-02
  -4.4196403e-03  -1.2243018e-02  -1.6349083e-02  -7.0726836e-03   1.2714639e-03   2.7293709e-02   4.5085345e-02  -1.8560430e-02   3.9190221e-02   3.1462295e-02  -4.8882899e-02  -3.7760227e-02  -4.0278261e-03  -5.8157146e-02  -6.9130186e-02  -8.5325978e-02  -1.7420711e-01  -3.2312532e-01  -1.9123807e-01   1.5827601e-01  -6.6998421e-02   3.7948428e-02  -6.0514276e-02   5.7384213e-02  -2.6680903e-01
  -6.1151583e-04  -6.6843601e-03   3.9219515e-03   1.8043814e-02  -3.5730577e-02   4.9689016e-02   8.5350123e-02  -6.5119352e-02   6.1382241e-02   1.1005857e-01  -1.0737740e-01   2.6696222e-02  -1.1612561e-01   5.7243856e-02   3.1494468e-02   7.8565552e-02  -7.0660086e-02   7.7154373e-02  -1.0005778e-01  -4.2753405e-02  -5.3211063e-03   1.7959745e-01   3.3199073e-02  -8.9278604e-02   8.3019474e-02
   3.7022038e-04   5.2080424e-03  -3.6645686e-03   1.3081003e-02  -1.1539578e-03   2.1436474e-02   3.3839881e-02  -6.4816854e-04   2.9913085e-02  -3.0875155e-03  -6.1184876e-02  -5.8920331e-02  -3.6572317e-02  -1.2035711e-02  -6.1073972e-02  -5.1662466e-03   7.9929597e-02   1.5892122e-02   7.4668636e-02   7.9904495e-02   1.3107664e-01  -2.0665030e-02   1.3976695e-01   5.4383108e-02  -1.8225024e-01
   4.2189575e-03  -6.1749797e-05  -1.8083893e-02  -2.1224306e-02   3.3126324e-02  -4.4507995e-02  -7.1841684e-02   7.5644184e-02  -1.0267659e-01  -7.1364198e-02   4.3612053e-02  -4.6040283e-02  -9.1703458e-02  -7.2771953e-02   1.3832559e-02   7.5230093e-02   2.9588685e-02  -1.9130794e-01  -1.2344639e-01   2.8229557e-02   6.0175416e-02   2.6814171e-01  -1.2856338e-01  -1.3577306e-01   1.2482984e-01
  -8.5846200e-03  -1.0108967e-02  -9.7259640e-03  -1.1286101e-02   1.3602468e-02   2.1053829e-02   1.3695564e-02  -2.5130138e-02   4.2906888e-03   2.4705874e-02   1.8603606e-02  -6.8995317e-02  -7.3297231e-02  -2.4662023e-02  -9.6154132e-02   7.9348195e-02   7.3170590e-02  -2.4953690e-02   1.1635480e-01   2.1608282e-01   1.0923654e-01   1.1987817e-02  -5.2655625e-02   2.5368235e-02  -7.6576828e-02
  -7.7930208e-04   1.0132998e-02   6.9113524e-03   3.3639351e-02   2.0129944e-02  -8.9532205e-03  -1.6741305e-02  -3.8106263e-03  -4.3381094e-03   2.2575681e-02   1.3191981e-02  -7.9766534e-02   1.0022897e-01   8.2302115e-04   7.9835872e-02  -1.3592759e-03   4.7023098e-02  -3.4366998e-02   1.7931197e-03   4.2435699e-02  -1.4593119e-01  -5.2419179e-03   1.1207368e-01  -8.0649582e-02   4.9859585e-02
  -7.3551308e-04  -3.3808714e-03   2.5353050e-03   1.0877141e-03   1.9830818e-02   1.9048682e-02  -2.5334888e-02   3.0720567e-03  -4.2881262e-02   5.2779090e-02   4.2572674e-02   5.4952923e-02   1.2899596e-02  -4.3981474e-02  -8.3451973e-02   1.2272543e-02  -1.3086154e-01   1.0305594e-01   1.4029030e-01   7.7960375e-02   3.3774227e-02  -1.0787054e-01  -1.4124371e-01   1.3284054e-01   1.4495970e-01
   5.2371954e-03  -1.8823733e-03   4.6349584e-04   7.5518541e-03  -5.4195626e-02   2.9215093e-02  -4.2687776e-02  -4.5194488e-02   1.1335925e-01  -3.0230151e-02  -1.0173618e-01  -4.7951594e-02   7.3740391e-02  -1.7531515e-01  -2.4820904e-02   1.6151131e-01   3.7257774e-01  -3.7886421e-02  -3.3804133e-01  -5.1891359e-02  -1.1838199e-01  -1.7340066e-01   1.5152332e-02  -7.0680462e-02  -3.3078814e-01
  -3.5164458e-04  -9.4991460e-03  -3.3398872e-03   1.9309490e-02   2.6893791e-02   5.8380648e-03  -8.6751683e-03   2.0775346e-03  -1.0388783e-01  -2.0175307e-02  -6.9900507e-03  -3.0198134e-02   1.1077089e-02   8.1880876e-02   2.2071302e-01  -6.7884775e-02   2.6987365e-01   1.0178992e-01  -2.1236410e-01   1.7542257e-01  -4.8287616e-02   8.8148506e-02   1.6742933e-01  -2.7625057e-01   7.0179313e-02
   1.1818985e-03  -2.2068556e-02   9.7161576e-03  -1.1221469e-02   2.9407406e-02   3.3053687e-02  -1.1971827e-02  -5.3329481e-03   5.9369944e-03  -5.3297676e-02   5.2804852e-03   4.0606739e-02   1.2981998e-01   2.1423577e-01   1.2974631e-01   9.7854068e-02  -7.2662315e-02  -1.9090127e-01   5.5269103e-02   7.6837872e-02  -1.6704308e-02   1.8812572e-01   2.1404836e-02   2.9960090e-01   1.2324187e-02
  -2.9477630e-03  -8.7988032e-03  -1.9087140e-02  -7.6067174e-03   2.0433866e-03   3.1923125e-02   4.1326643e-02  -1.8460953e-02   2.7948317e-02   3.2488596e-02  -3.1431681e-02  -4.3581976e-02   4.1121634e-02  -6.2204838e-02  -5.7277774e-02  -9.3695119e-02  -1.5539030e-01  -3.1536026e-01  -1.9923410e-01   8.7311221e-02  -8.2030142e-02   3.6730334e-02  -5.3394161e-02   2.8915368e-02  -1.9930905e-01
  -6.7299212e-04  -6.9363716e-03  -8.5227628e-04   1.4969005e-02  -3.7746087e-02   3.9546558e-02   7.0946098e-02  -6.7174684e-02   5.7696986e-02   1.2285551e-01  -8.0885599e-02   1.1476886e-02  -1.0331366e-01   4.7508965e-02   1.8625965e-02   9.3737971e-02  -2.5874129e-02   8.7228040e-02  -4.5053486e-02  -1.1975734e-02  -6.9741619e-04   1.7971911e-01   7.4187734e-02  -6.7587113e-02   1.0993441e-01
  -5.4225098e-05   4.5825022e-03  -2.0628646e-04   1.2023222e-02   1.6882543e-04   1.2294130e-02   3.5062339e-02   7.1231778e-03   3.6559381e-02  -6.8111999e-03  -4.8151663e-02  -6.3191364e-02  -2.0365593e-02  -1.8693604e-03  -5.7401932e-02   1.2860827e-02   8.4701504e-02   4.1076216e-02   7.9461160e-02   6.7673966e-02   1.2098524e-01  -1.7192735e-02   1.4194595e-01   2.5658781e-02  -1.5468537e-01
   3.6031230e-03   1.0664075e-03  -1.9788159e-02  -2.0496392e-02   4.1062699e-02  -4.2217983e-02  -7.5282577e-02   7.0346184e-02  -1.1179889e-01  -8.5135398e-02   5.8713044e-02  -6.7105540e-02  -7.4296296e-02  -1.1419385e-01   3.9927283e-02   8.5781412e-02   7.5428578e-02  -2.1210999e-01  -1.1538556e-01   5.6035339e-02   5.4710214e-02   2.3186470e-01  -1.3452276e-01  -9.5837652e-02   7.2540503e-02
  -8.3793931e-03  -1.3727606e-02  -1.1838593e-02  -1.4023654e-02   9.6761848e-03   1.5962021e-02   1.2605113e-02  -1.6160384e-02  -8.4065229e-03   3.6713125e-02   2.0390278e-02  -5.5006184e-02  -8.2838019e-02  -7.5363592e-03  -9.4333872e-02   6.9538899e-02   9.7891434e-03  -3.5232729e-02   8.8921252e-02   2.2113746e-01   7.3169612e-02   1.1374874e-02  -4.7689206e-02  -9.4710092e-03  -8.7434348e-02
   1.0572318e-03   8.7945821e-03   4.8929634e-03   3.0297697e-02   1.7649171e-02  -1.1020942e-02  -2.4746711e-02  -1.2603448e-02  -6.5533095e-03   3.7046917e-02   1.3289560e-02  -6.1297691e-02   1.0253356e-01   1.9907905e-02   5.3261107e-02   2.8479196e-02   1.3938333e-02   6.6090555e-03  -1.3447194e-02  -1.9104293e-02  -1.7846488e-01  -1.3277941e-02   1.2587358e-01  -1.1340401e-01   4.7010720e-02
  -2.2460801e-03  -5.2944714e-05   3.6767858e-03  -4.9933286e-03   1.1919910e-02   2.2783590e-02  -1.9859223e-02  -2.1786077e-03  -2.0105052e-02   4.8544761e-02   4.3836291e-02   6.4565833e-02  -1.6579211e-02  -4.1174642e-02  -1.1578690e-01  -2.4246854e-02  -1.3930511e-01   8.2224881e-02   1.8042327e-01   6.1211886e-02   7.2266963e-02  -1.2182658e-01  -1.2741425e-01   8.5435037e-02   1.3858264e-01
   6.1454680e-03  -4.7949143e-03  -1.4064166e-03  -1.6805711e-04  -5.7436628e-02   2.8507647e-02  -5.6086903e-02  -5.0160887e-02   1.2829368e-01  -3.0320317e-02  -7.7183308e-02  -2.9419174e-02   8.6164200e-02  -1.8075243e-01  -6.6175787e-02   1.5378494e-01   3.5050347e-01   2.2336779e-03  -3.7244148e-01  -1.3580668e-01  -1.4354778e-01  -1.5752811e-01   3.2257259e-02  -1.4114120e-01  -3.9519406e-01
  -4.2953090e-04  -7.3719386e-03  -5.7946512e-03   1.8840215e-02   1.3895860e-02  -9.4376215e-03   1.0534815e-02   6.5573627e-03  -9.0669691e-02  -9.5700679e-03   2.4108293e-03  -2.6888784e-02   1.7213722e-02   6.9847816e-02   2.0841230e-01  -5.6578226e-02   2.0245655e-01   6.8261986e-02  -1.8690306e-01   1.2652379e-01  -2.3722533e-02   1.0494990e-01   2.5350655e-01  -2.4446825e-01   2.9444907e-02
   1.7663794e-03  -2.5764715e-02   1.3399900e-02  -1.1813170e-02   3.1426532e-02   3.9775225e-02  -2.5700522e-02  -2.9078269e-02   1.8976990e-02  -3.4616015e-02  -2.7676818e-02   2.2580464e-02   1.2278341e-01   1.9770591e-01   1.0792781e-01   1.0348723e-01  -3.3265379e-02  -2.3373380e-01   3.2585813e-02   6.9421294e-02  -9.9501602e-02   1.2645679e-01  -7.7133840e-04   2.3177801e-01  -4.1765371e-02
  -1.2081283e-03  -4.4519269e-03  -2.0879101e-02  -7.0467007e-03   1.8385623e-03   3.4662507e-02   3.4118697e-02  -1.7956486e-02   1.3525116e-02   3.1031048e-02  -1.3023833e-02  -4.9534833e-02   9.0051997e-02  -5.9605492e-02  -3.9970161e-02  -1.0421746e-01  -1.2356358e-01  -2.9142486e-01  -1.8786401e-01   1.6758838e-02  -9.1375497e-02   2.1535077e-02  -4.1531925e-02   4.7209129e-03  -1.1711875e-01
  -5.3378640e-04  -6.3832557e-03  -5.7754150e-03   1.1980809e-02  -3.7034585e-02   2.9044379e-02   5.6193990e-02  -6.5208078e-02   5.4786104e-02   1.2834843e-01  -5.5905574e-02  -7.3205048e-03  -9.6903978e-02   3.8474258e-02   3.4980129e-03   1.0924851e-01   2.5366731e-02   9.3849332e-02   1.2689296e-02   1.9680516e-02   1.3428993e-02   1.7888916e-01   9.9615430e-02  -4.6959903e-02   1.3312622e-01
  -5.3981757e-04   4.8791636e-03   2.8425234e-03   1.1877266e-02   1.3429363e-03   7.9027850e-03   3.5299238e-02   1.2561523e-02   4.2162599e-02  -8.7829421e-03  -4.0228838e-02  -6.3621274e-02  -4.7940920e-03   2.5555388e-03  -4.4969909e-02   3.1341365e-02   7.9006645e-02   5.9458831e-02   7.0500702e-02   5.0158528e-02   1.0542746e-01  -9.9338895e-03   1.2569145e-01  -5.7827392e-03  -1.2953989e-01
   3.0903041e-03   6.4803918e-04  -2.1507975e-02  -1.9454224e-02   4.3478077e-02  -3.8986248e-02  -7.4562985e-02   5.9266359e-02  -1.2127114e-01  -8.9292289e-02   7.6887095e-02  -8.1766896e-02  -5.5433655e-02  -1.4697301e-01   5.9578249e-02   9.1470098e-02   1.1343084e-01  -2.2745827e-01  -9.7523670e-02   8.6740792e-02   5.2229869e-02   1.7252575e-01  -1.1940574e-01  -4.1808598e-02   7.0275843e-03
  -8.3568513e-03  -1.6742874e-02  -1.1616127e-02  -1.4331864e-02   6.8928784e-03   9.6374896e-03   9.8518983e-03  -5.5475282e-03  -1.8711968e-02   4.0927664e-02   2.1248926e-02  -4.5532606e-02  -8.3912616e-02   2.9088352e-03  -8.4613027e-02   5.5040536e-02  -4.9437148e-02  -4.7587304e-02   5.4898368e-02   2.4130094e-01   3.5215839e-02   9.8022142e-03  -4.5717117e-02  -4.0289652e-02  -1.0085497e-01
   2.4966984e-03   7.1056695e-03   1.9946914e-03   2.6010111e-02   1.4900965e-02  -1.0205656e-02  -2.8112640e-02  -2.2867743e-02  -5.4239657e-03   5.0536255e-02   2.5711964e-02  -4.5191297e-02   1.0140261e-01   3.1146062e-02   2.9227771e-02   5.7717798e-02  -1.0023890e-02   4.7031274e-02  -3.0702375e-02  -7.7820082e-02  -1.9439351e-01  -4.5036161e-03   1.3320114e-01  -1.3451417e-01   5.3542634e-02
  -3.4258816e-03   2.8528779e-03   4.6984118e-03  -9.7322628e-03   5.5527259e-03   2.5779570e-02  -1.4501775e-02  -4.2513715e-03  -1.3836785e-03   3.4426593e-02   4.3066056e-02   7.1295264e-02  -4.1672636e-02  -3.8732777e-02  -1.3392153e-01  -5.9758305e-02  -1.3677571e-01   4.5967877e-02   1.9571933e-01   4.5422540e-02   1.0009181e-01  -1.3291924e-01  -1.3081507e-01   3.6964822e-02   1.2432823e-01
   6.5736003e-03  -7.3632072e-03  -3.7570533e-03  -7.7549149e-03  -5.4687873e-02   2.4782028e-02  -6.9214078e-02  -5.2983661e-02   1.3630889e-01  -2.9959133e-02  -5.0733433e-02  -1.3167821e-02   8.5565020e-02  -1.7835274e-01  -9.6179552e-02   1.3230322e-01   3.1335671e-01   4.1764980e-02  -3.9025046e-01  -2.0010999e-01  -1.5895659e-01  -1.3715922e-01   4.3488799e-02  -2.1723901e-01  -4.2581771e-01
  -5.2880651e-04  -4.5630432e-03  -7.6382729e-03   1.8261155e-02   1.0999968e-03  -2.3053740e-02   2.6029652e-02   1.3625427e-02  -7.0990468e-02   4.1563763e-03   7.8613232e-03  -2.2171129e-02   1.9333257e-02   5.5734675e-02   1.8215890e-01  -2.6910073e-02   1.2707504e-01   4.5700056e-02  -1.4554830e-01   8.1950143e-02  -2.6514163e-03   1.2204602e-01   3.2873092e-01  -1.9958049e-01  -1.8856110e-02
   2.2399862e-03  -2.7641059e-02   1.6585425e-02  -1.2755721e-02   3.2308380e-02   4.4248320e-02  -3.9593116e-02  -4.9458951e-02   3.4217505e-02  -1.9996994e-02  -6.4144246e-02  -6.5077084e-04   1.0417925e-01   1.8750768e-01   7.5557923e-02   1.0559224e-01   2.3274398e-03  -2.5807987e-01   1.7879827e-02   5.8148581e-02  -1.7230916e-01   6.2770566e-02  -2.0824701e-02   1.6084857e-01  -9.1887344e-02
   6.6316677e-04   3.0047571e-04  -2.1477727e-02  -5.1400184e-03   8.6387337e-04   3.4867769e-02   2.3645600e-02  -1.7046200e-02  -2.3410931e-03   2.7943155e-02   3.9581326e-03  -5.5360211e-02   1.3807982e-01  -4.9083373e-02  -1.9019028e-02  -1.1648450e-01  -8.2024910e-02  -2.5456803e-01  -1.6025465e-01  -4.6287909e-02  -9.5285432e-02  -1.9087570e-03  -2.3933257e-02  -1.5162708e-02  -2.6840563e-02
  -2.2057336e-04  -4.9238773e-03  -1.0350388e-02   9.6389042e-03  -3.3789246e-02   1.9005803e-02   4.1796435e-02  -5.8687451e-02   5.2865315e-02   1.2646842e-01  -3.5331628e-02  -2.8193108e-02  -9.7097544e-02   3.1499100e-02  -1.0872624e-02   1.2325721e-01   7.7110764e-02   9.5627362e-02   6.5215245e-02   5.0071074e-02   3.6407476e-02   1.8125949e-01   1.0745998e-01  -3.2824761e-02   1.5504289e-01
  -1.0506764e-03   6.0806035e-03   5.0856784e-03   1.2809982e-02   1.8464075e-03   8.5967807e-03   3.4987146e-02   1.4672689e-02   4.8175119e-02  -6.6482113e-03  -3.9111745e-02  -5.9734418e-02   1.0409166e-02   3.1912766e-04  -2.5377631e-02   4.9407630e-02   6.0081314e-02   6.7326799e-02   5.0485955e-02   3.1425399e-02   8.7374440e-02  -1.3852262e-03   9.2996333e-02  -3.3553342e-02  -1.0619610e-01
   2.6869100e-03  -8.4026159e-04  -2.3079369e-02  -1.8601309e-02   4.0983684e-02  -3.5133362e-02  -7.0256345e-02   4.5208308e-02  -1.3006765e-01  -8.4900454e-02   9.1662858e-02  -8.9767641e-02  -3.6831995e-02  -1.6870766e-01   7.2855318e-02   9.2917349e-02   1.3804173e-01  -2.3753799e-01  -7.4787583e-02   1.1382100e-01   4.9796953e-02   9.9697538e-02  -8.5218429e-02   1.7467039e-02  -6.7083445e-02
  -8.3901787e-03  -1.8796127e-02  -9.2986602e-03  -1.2237876e-02   5.6520062e-03   3.0958187e-03   6.6874329e-03   4.2107416e-03  -2.3111671e-02   3.8489825e-02   2.1112796e-02  -4.3142045e-02  -7.7734362e-02   5.6126737e-03  -7.3042841e-02   3.8140325e-02  -9.6755123e-02  -5.8318172e-02   1.6904152e-02   2.6434268e-01   3.2223629e-03   7.6522855e-03  -4.8754948e-02  -6.1861799e-02  -1.1300354e-01
   3.2644831e-03   5.5671272e-03  -1.2268584e-03   2.1633202e-02   1.2316016e-02  -6.7312996e-03  -2.6455002e-02  -3.1826587e-02  -1.7821825e-03   6.0151413e-02   4.8685193e-02  -3.1846537e-02   9.7114702e-02   3.3029480e-02   1.5174728e-02   8.4245932e-02  -2.7129325e-02   7.9713308e-02  -5.0874700e-02  -1.2541741e-01  -1.9164530e-01   1.6918329e-02   1.3122013e-01  -1.3963680e-01   6.6507512e-02
  -4.1122252e-03   4.8650050e-03   5.7666449e-03  -1.2812079e-02   1.4458636e-03   2.8361804e-02  -1.0654723e-02  -4.2878626e-03   1.2912474e-02   1.1408708e-02   4.0410355e-02   7.4424157e-02  -6.1427586e-02  -3.5213968e-02  -1.3814292e-01  -9.1209290e-02  -1.1780325e-01  -4.4701792e-04   1.8651493e-01   3.0332175e-02   1.0927713e-01  -1.3826648e-01  -1.5681328e-01  -9.8556093e-03   9.8602439e-02
   6.6077808e-03  -9.6387411e-03  -6.1843094e-03  -1.4890447e-02  -4.6648920e-02   1.8665051e-02  -8.0417080e-02  -5.3512690e-02   1.3763169e-01  -2.9071194e-02  -2.3105638e-02   7.2256335e-04   7.1628697e-02  -1.7066288e-01  -1.1380963e-01   9.9847800e-02   2.6444890e-01   7.6835656e-02  -3.9068120e-01  -2.4263953e-01  -1.6791816e-01  -1.1293366e-01   4.5351017e-02  -2.9346264e-01  -4.2335375e-01
  -5.6605350e-04  -1.6419534e-03  -8.7309354e-03   1.7756918e-02  -1.0246434e-02  -3.3882600e-02   3.6943136e-02   2.1563963e-02  -4.6100386e-02   1.7718055e-02   1.0065563e-02  -1.5414293e-02   1.8035312e-02   4.0086265e-02   1.4416272e-01   1.8639334e-02   4.7317467e-02   3.5604459e-02  -9.2963566e-02   4.3263708e-02   1.1029602e-02   1.3654665e-01   3.8136646e-01  -1.4623030e-01  -7.0983264e-02
   2.5838285e-03  -2.7567821e-02   1.9061210e-02  -1.4026231e-02   3.1539456e-02   4.6898036e-02  -5.1995491e-02  -6.5725805e-02   5.0792504e-02  -9.8165544e-03  -1.0140269e-01  -2.6885154e-02   7.6106330e-02   1.8182860e-01   3.4113178e-02   1.0478644e-01   3.3930557e-02  -2.6489411e-01   1.3226456e-02   4.4716823e-02  -2.3294539e-01  -2.5027156e-03  -3.7449811e-02   9.1900770e-02  -1.3526543e-01
   2.5277519e-03   4.9732888e-03  -2.0737218e-02  -1.8137796e-03  -6.0730446e-04   3.2133066e-02   1.0527468e-02  -1.6032970e-02  -1.7705268e-02   2.3906071e-02   1.7392310e-02  -6.0883367e-02   1.8081459e-01  -3.0532268e-02   2.7970236e-03  -1.2917053e-01  -3.4411497e-02  -2.0801105e-01  -1.2099976e-01  -9.7158234e-02  -9.3858077e-02  -2.8436315e-02  -4.1416733e-04  -3.1068283e-02   6.3425230e-02
   2.3954596e-04  -2.5585579e-03  -1.4104818e-02   8.4205044e-03  -2.8522081e-02   1.0071345e-02   2.8394545e-02  -4.7646615e-02   5.2177653e-02   1.1769331e-01  -2.1063820e-02  -4.8835243e-02  -1.0295645e-01   2.7446164e-02  -2.2494123e-02   1.3396794e-01   1.2261928e-01   9.2483614e-02   1.0653740e-01   7.7536778e-02   6.5536961e-02   1.8902856e-01   9.7521011e-02  -2.9815246e-02   1.7666599e-01
  -1.5253600e-03   8.0036817e-03   6.2216996e-03   1.4776445e-02   1.1627315e-03   1.3860937e-02   3.4530360e-02   1.2975407e-02   5.6281402e-02   1.6276252e-03  -4.5579671e-02  -5.1287860e-02   2.5680272e-02  -8.4380221e-03  -1.4292900e-03   6.6870552e-02   2.6246339e-02   6.2681384e-02   2.3584773e-02   1.5102333e-02   6.9897666e-02   6.0753464e-03   4.8078571e-02  -5.2462281e-02  -8.2265974e-02
   2.3859497e-03  -2.7177180e-03  -2.4312439e-02  -1.8228006e-02   3.4801302e-02  -3.1171958e-02  -6.3775493e-02   3.1983370e-02  -1.3740065e-01  -7.4483962e-02   9.8231945e-02  -9.0310189e-02  -2.0862214e-02  -1.7707682e-01   7.9830151e-02   8.9767156e-02   1.4418054e-01  -2.4127207e-01  -5.2277343e-02   1.3284174e-01   4.5446613e-02   2.5582070e-02  -3.7705122e-02   7.0729235e-02  -1.4051160e-01
  -8.3901693e-03  -1.9633152e-02  -5.4947895e-03  -8.1840234e-03   5.9589261e-03  -2.1815313e-03   4.4613608e-03   1.1082037e-02  -1.9139614e-02   3.1160589e-02   2.1342823e-02  -4.8159246e-02  -6.6380697e-02   2.0298209e-04  -6.3771423e-02   2.1419298e-02  -1.2761784e-01  -6.4918713e-02  -2.2875885e-02   2.7734256e-01  -1.5464799e-02   5.8271737e-03  -5.9104066e-02  -7.1485207e-02  -1.1936592e-01
   3.2594336e-03   4.6203637e-03  -4.0004680e-03   1.8164304e-02   1.0246126e-02  -1.6407669e-03  -1.9956971e-02  -3.7546512e-02   3.7076253e-03   6.3759386e-02   7.8268902e-02  -2.1719930e-02   9.0125823e-02   2.6173453e-02   1.3496367e-02   1.0611699e-01  -4.0036771e-02   1.0102879e-01  -7.3988850e-02  -1.5623297e-01  -1.6936586e-01   4.3775393e-02   1.1929233e-01  -1.2513836e-01   8.2540195e-02
  -4.1741413e-03   5.5406391e-03   6.9137753e-03  -1.4304888e-02  -5.3103160e-04   3.0488054e-02  -8.8086107e-03  -4.3781228e-03   2.3772558e-02  -1.8088696e-02   3.6655488e-02   7.3937817e-02  -7.4494831e-02  -2.9217861e-02  -1.3168829e-01  -1.1739211e-01  -7.9432260e-02  -5.2200420e-02   1.5663299e-01   1.2690969e-02   9.5957086e-02  -1.3544033e-01  -2.0397994e-01  -5.2241960e-02   5.5669058e-02
   6.3636769e-03  -1.1637173e-02  -8.3600023e-03  -2.1290555e-02  -3.4613295e-02   1.0743608e-02  -8.7792004e-02  -5.1665968e-02   1.3260656e-01  -2.7252492e-02   4.6172401e-03   1.2422775e-02   4.5131112e-02  -1.6064650e-01  -1.1920730e-01   5.8976186e-02   2.0701231e-01   1.0442336e-01  -3.7360844e-01  -2.6328924e-01  -1.7291159e-01  -8.5613731e-02   3.6936691e-02  -3.6408283e-01  -3.9117198e-01
  -4.7306889e-04   9.0527069e-04  -8.9787953e-03   1.7410362e-02  -1.9188411e-02  -4.1018761e-02   4.2974829e-02   2.8343492e-02  -1.7409672e-02   2.8099871e-02   1.0347885e-02  -5.7925410e-03   1.4386672e-02   2.3124556e-02   9.6499033e-02   7.6596311e-02  -3.3106674e-02   3.7918984e-02  -3.3292337e-02   1.0855124e-02   1.4677173e-02   1.4615117e-01   4.0297239e-01  -8.8673132e-02  -1.2335423e-01
   2.7766217e-03  -2.5486594e-02   2.0619842e-02  -1.5532994e-02   2.8709144e-02   4.8228207e-02  -6.1258165e-02  -7.7355099e-02   6.7248201e-02  -3.9346141e-03  -1.3697871e-01  -5.3702056e-02   4.1467720e-02   1.7839089e-01  -1.4102297e-02   1.0146955e-01   6.1290653e-02  -2.5633973e-01   1.9993296e-02   3.0901291e-02  -2.7929912e-01  -6.9006656e-02  -4.8815592e-02   2.9573587e-02  -1.6886674e-01
   4.2382231e-03   9.1317459e-03  -1.8645825e-02   2.7741278e-03  -2.3073100e-03   2.6357968e-02  -4.2158723e-03  -1.5441829e-02  -3.0712917e-02   1.9376372e-02   2.5802608e-02  -6.5897359e-02   2.1450762e-01  -5.1070506e-03   2.2147586e-02  -1.4000492e-01   1.5452734e-02  -1.5507328e-01  -7.5794760e-02  -1.3356564e-01  -8.6867909e-02  -5.3887767e-02   2.8221881e-02  -4.3407034e-02   1.4514362e-01
   8.1961571e-04   5.8837563e-04  -1.6650207e-02   8.6176233e-03  -2.2040169e-02   2.7118579e-03   1.6662808e-02  -3.2837633e-02   5.2982527e-02   1.0311771e-01  -1.4109733e-02  -6.6524522e-02  -1.1252662e-01   2.6396228e-02  -3.0445798e-02   1.4002555e-01   1.5514053e-01   8.5620184e-02   1.3299104e-01   1.0042463e-01   9.6337087e-02   2.0198630e-01   7.2055374e-02  -4.0697689e-02   1.9654825e-01
  -1.8897150e-03   1.0337584e-02   6.0882741e-03   1.7515773e-02  -1.0896715e-03   2.2519505e-02   3.4179767e-02   7.6450104e-03   6.7895621e-02   1.7110366e-02  -5.9264962e-02  -3.8314932e-02   4.1077153e-02  -2.2515749e-02   2.3253319e-02   8.3881211e-02  -2.2340945e-02   4.5966349e-02  -5.1966319e-03   3.8955854e-03   5.5727274e-02   1.0762313e-02  -3.3058940e-03  -5.9547721e-02  -5.4824510e-02
   2.1991686e-03  -4.3178360e-03  -2.4918621e-02  -1.8350063e-02   2.6419802e-02  -2.7692062e-02  -5.7028743e-02   2.3373144e-02  -1.4235253e-01  -6.1704020e-02   9.4603073e-02  -8.1974086e-02  -1.0144992e-02  -1.7020008e-01   7.9355456e-02   8.0306366e-02   1.2811379e-01  -2.3661028e-01  -3.3941012e-02   1.4117461e-01   3.8590788e-02  -3.7151270e-02   1.3613804e-02   1.0579750e-01  -2.0154704e-01
  -8.3351469e-03  -1.9111910e-02  -1.0937385e-03  -2.9403847e-03   7.4125686e-03  -4.5230134e-03   4.3627765e-03   1.3836108e-02  -6.0856806e-03   2.1023637e-02   2.4598665e-02  -5.8703926e-02  -5.2041053e-02  -1.2880448e-02  -5.8113261e-02   7.5998121e-03  -1.4094011e-01  -6.6960905e-02  -6.2705614e-02   2.6969723e-01  -1.4956999e-02   5.6819462e-03  -7.8406692e-02  -6.8915510e-02  -1.1550698e-01
   2.5657928e-03   4.5492269e-03  -5.4258779e-03   1.6583767e-02   8.9587610e-03   3.3954621e-03  -9.4317223e-03  -3.9214200e-02   1.0796016e-02   6.0273680e-02   1.0876755e-01  -1.5451397e-02   8.0789958e-02   1.3118840e-02   2.1057158e-02   1.2127678e-01  -5.0780230e-02   1.1153452e-01  -9.8712903e-02  -1.6767871e-01  -1.2863712e-01   6.7471586e-02   9.9186116e-02  -8.9474046e-02   9.8331044e-02
  -3.5768143e-03   4.6464749e-03   7.9452756e-03  -1.4551377e-02  -1.1086979e-03   3.1701019e-02  -8.6329199e-03  -6.3643383e-03   3.2357267e-02  -5.0219330e-02   3.2471859e-02   7.0013467e-02  -7.9354492e-02  -1.9539854e-02  -1.1818913e-01  -1.3841260e-01  -2.2006464e-02  -1.0498920e-01   1.1174377e-01  -1.0756966e-02   6.1440728e-02  -1.2268368e-01  -2.6334413e-01  -8.7254375e-02  -9.2269255e-03
   5.9559731e-03  -1.3280867e-02  -1.0082201e-02  -2.6676967e-02  -2.0242307e-02   1.5379965e-03  -8.9486033e-02  -4.7175703e-02   1.2131775e-01  -2.3763533e-02   3.0913836e-02   2.2207487e-02   7.8034872e-03  -1.5136367e-01  -1.1293528e-01   1.2059995e-02   1.4390154e-01   1.2283544e-01  -3.3997441e-01  -2.6308281e-01  -1.7507222e-01  -5.6128796e-02   1.9957677e-02  -4.2356176e-01  -3.3379402e-01
  -2.1786347e-04   2.7417965e-03  -8.3510727e-03   1.7234897e-02  -2.5081868e-02  -4.3821018e-02   4.4335744e-02   3.2038183e-02   1.3339886e-02   3.2971766e-02   1.0380105e-02   7.4711450e-03   9.7969486e-03   4.7574788e-03   4.1460187e-02   1.4292542e-01  -1.1069994e-01   5.1158262e-02   2.9890769e-02  -1.5241645e-02   7.2912992e-03   1.4931974e-01   3.8922250e-01  -3.0288776e-02  -1.7207231e-01
   2.7947145e-03  -2.1408444e-02   2.1086598e-02  -1.7105053e-02   2.3572160e-02   4.8752045e-02  -6.5923285e-02  -8.3993677e-02   8.1689528e-02  -1.8092915e-03  -1.6880924e-01  -7.8735356e-02   3.6330133e-03   1.7470257e-01  -6.6036876e-02   9.5837102e-02   8.3864975e-02  -2.3531696e-01   3.8631783e-02   1.8476616e-02  -3.0935561e-01  -1.3635233e-01  -5.2999610e-02  -2.2316956e-02  -1.8915341e-01
   5.6337852e-03   1.2421864e-02  -1.5347547e-02   8.2151909e-03  -4.0494595e-03   1.7778046e-02  -1.9246004e-02  -1.5902469e-02  -3.9894487e-02   1.4592548e-02   2.8687097e-02  -7.0034931e-02   2.3634022e-01   2.4869143e-02   3.5630742e-02  -1.4590099e-01   6.3687212e-02  -9.9369496e-02  -3.0951721e-02  -1.5520603e-01  -7.3635071e-02  -7.5288861e-02   6.0185119e-02  -5.2359004e-02   2.1052635e-01
   1.4843418e-03   4.2752299e-03  -1.7747286e-02   1.0261602e-02  -1.5367068e-02  -2.7379134e-03   7.3593951e-03  -1.5715626e-02   5.5417699e-02   8.4494417e-02  -1.4803707e-02  -7.8617127e-02  -1.2309147e-01   2.7498108e-02  -3.4491179e-02   1.4088943e-01   1.6877050e-01   7.7297483e-02   1.4317411e-01   1.1690484e-01   1.2307379e-01   2.1745559e-01   3.6215103e-02  -6.5467926e-02   2.1054445e-01
  -2.0747380e-03   1.2696782e-02   4.7042013e-03   2.0578241e-02  -5.0318936e-03   3.2964212e-02   3.3941452e-02  -4.4848233e-04   8.3661188e-02   3.9339056e-02  -7.8544819e-02  -2.1223655e-02   5.5858945e-02  -3.9733033e-02   4.4736751e-02   1.0055861e-01  -8.2985034e-02   2.0347117e-02  -3.0778517e-02  -7.4245043e-04   4.6811737e-02   1.2059237e-02  -5.4716591e-02  -5.4631789e-02  -2.1857257e-02
   2.1741719e-03  -5.1698604e-03  -2.4522592e-02  -1.8741759e-02   1.7281070e-02  -2.5275004e-02  -5.1904142e-02   2.2105230e-02  -1.4364163e-01  -5.0761094e-02   8.1872684e-02  -6.3176377e-02  -6.7598545e-03  -1.4729615e-01   6.8706543e-02   6.1802428e-02   8.8408260e-02  -2.2162441e-01  -2.1760815e-02   1.3749913e-01   3.0311509e-02  -7.7720290e-02   5.6910707e-02   1.1184280e-01  -2.3943258e-01
  -8.2763410e-03  -1.7215391e-02   2.8764367e-03   2.5223344e-03   9.2759164e-03  -2.4924917e-03   7.1699785e-03   1.2186551e-02   1.4584211e-02   1.0259817e-02   3.4206863e-02  -7.1270353e-02  -3.6374278e-02  -3.2252157e-02  -5.4720909e-02  -6.4018453e-04  -1.3868178e-01  -6.6282659e-02  -1.0109415e-01   2.3553563e-01   8.2171578e-03   8.8198747e-03  -1.0665855e-01  -5.5932460e-02  -9.7782667e-02
   1.4240658e-03   5.4184305e-03  -4.6370694e-03   1.7656632e-02   8.6488049e-03   6.4523515e-03   3.6467275e-03  -3.7099988e-02   1.9623281e-02   4.9778992e-02   1.3354180e-01  -1.3728871e-02   6.9247215e-02  -2.2186947e-03   3.0461185e-02   1.2753637e-01  -6.0258951e-02   1.1539931e-01  -1.2231039e-01  -1.6010310e-01  -7.3350769e-02   8.0027553e-02   7.4747443e-02  -3.4514614e-02   1.1089604e-01
  -2.4267839e-03   2.2920476e-03   8.4569191e-03  -1.3989933e-02  -1.2071549e-03   3.1261441e-02  -9.3292855e-03  -1.0777936e-02   3.8912218e-02  -8.0063888e-02   2.7865843e-02   6.2556673e-02  -7.4916524e-02  -5.4659108e-03  -9.9463895e-02  -1.5483720e-01   5.0682843e-02  -1.5449853e-01   5.7701631e-02  -4.0542530e-02   1.1876119e-02  -9.9102383e-02  -3.2005619e-01  -1.1214285e-01  -9.6258938e-02
   5.4772717e-03  -1.4385262e-02  -1.1275300e-02  -3.0757484e-02  -5.3189379e-03  -8.4612145e-03  -8.4025512e-02  -3.9504433e-02   1.0344927e-01  -1.7656830e-02   5.3929256e-02   3.0361385e-02  -3.7869807e-02  -1.4567607e-01  -9.5570230e-02  -3.8623178e-02   7.7517697e-02   1.3204282e-01  -2.9194594e-01  -2.4350439e-01  -1.7415073e-01  -2.5638737e-02  -1.9825804e-03  -4.6699232e-01  -2.5552714e-01
   1.8061793e-04   3.7185179e-03  -6.8771405e-03   1.7220007e-02  -2.7554223e-02  -4.1921064e-02   4.1614527e-02   3.1215530e-02   4.3961259e-02   3.0960767e-02   1.1862156e-02   2.4832419e-02   5.7767741e-03  -1.5392701e-02  -1.8126976e-02   2.1343789e-01  -1.8241677e-01   7.2739820e-02   9.3488494e-02  -3.4615475e-02  -1.0477164e-02   1.4530483e-01   3.3995133e-01   2.6631984e-02  -2.1242988e-01
   2.6166307e-03  -1.5426699e-02   2.0358528e-02  -1.8500370e-02   1.6087690e-02   4.8934832e-02  -6.4889778e-02  -8.5468921e-02   9.2046543e-02  -2.6519891e-03  -1.9529563e-01  -9.9893847e-02  -3.3906599e-02   1.6828829e-01  -1.1814280e-01   8.7897155e-02   1.0071847e-01  -2.0503509e-01   6.8588779e-02   9.0294010e-03  -3.2135869e-01  -2.0401060e-01  -4.8494093e-02  -6.1088543e-02  -1.9220277e-01
   6.5425847e-03   1.4590899e-02  -1.1142764e-02   1.3870040e-02  -5.7885096e-03   6.9495310e-03  -3.3025130e-02  -1.8022944e-02  -4.4402959e-02   9.6236396e-03   2.6712933e-02  -7.2678952e-02   2.4461603e-01   5.6170986e-02   4.0207139e-02  -1.4327336e-01   1.0651540e-01  -4.4935765e-02   7.1998568e-03  -1.6314596e-01  -5.3012253e-02  -9.0815782e-02   9.2863005e-02  -5.7623993e-02   2.5365761e-01
   2.1770765e-03   8.1705482e-03  -1.7351945e-02   1.3090799e-02  -9.6139596e-03  -6.0259090e-03   1.2965999e-03   1.7199623e-03   5.9302734e-02   6.4178365e-02  -2.3009769e-02  -8.3038042e-02  -1.3159215e-01   2.8983475e-02  -3.4500358e-02   1.3707192e-01   1.5931745e-01   7.0500236e-02   1.3759778e-01   1.2506301e-01   1.3938307e-01   2.3065284e-01  -2.1410947e-03  -1.0087871e-01   2.1238068e-01
  -2.0345656e-03   1.4682314e-02   2.2943555e-03   2.3382156e-02  -1.0432741e-02   4.3369871e-02   3.3538417e-02  -9.8191933e-03   1.0304954e-01   6.6016231e-02  -1.0059788e-01  -9.2993971e-04   6.8339988e-02  -5.7080412e-02   5.9315575e-02   1.1669154e-01  -1.5002036e-01  -8.5161170e-03  -4.8787295e-02   1.2535714e-03   4.4026057e-02   1.0524115e-02  -9.9821339e-02  -4.0289830e-02   1.6416850e-02
   2.3835255e-03  -5.0785169e-03  -2.2792278e-02  -1.9034227e-02   8.5876322e-03  -2.4447574e-02  -4.9742556e-02   2.9198175e-02  -1.3981942e-01  -4.5499176e-02   6.3524465e-02  -3.3130671e-02  -1.1281236e-02  -1.0945427e-01   4.4610551e-02   3.1702209e-02   2.6715398e-02  -1.9600383e-01  -1.5822221e-02   1.2181095e-01   2.3587726e-02  -8.9442264e-02   8.0986192e-02   8.2189900e-02  -2.4762954e-01
  -8.3175180e-03  -1.4073528e-02   5.4386133e-03   7.1889530e-03   1.0624808e-02   4.6242945e-03   1.3030919e-02   6.7268111e-03   3.9231040e-02   9.4757783e-04   5.3088890e-02  -8.1696775e-02  -2.0135059e-02  -5.5497418e-02  -5.0721347e-02  -9.7656847e-04  -1.2492575e-01  -6.6454261e-02  -1.3642555e-01   1.7523655e-01   5.4129086e-02   1.6698684e-02  -1.4148335e-01  -3.5684718e-02  -6.4104152e-02
   1.6941533e-04   7.0633818e-03  -1.0378376e-03   2.1725223e-02   9.4442572e-03   5.8365729e-03   1.7200377e-02  -3.2261145e-02   3.0431371e-02   3.3554387e-02   1.4616078e-01  -1.6921242e-02   5.5563181e-02  -1.5332999e-02   3.2759042e-02   1.2295671e-01  -6.8337051e-02   1.1872925e-01  -1.4106197e-01  -1.3617000e-01  -1.0752799e-02   7.6057853e-02   5.1220370e-02   3.3691724e-02   1.1772713e-01
  -9.7228022e-04  -1.0591367e-03   7.9724552e-03  -1.3000634e-02  -1.5509432e-03   2.8422239e-02  -1.0060031e-02  -1.6402472e-02   4.2333922e-02  -1.0233990e-01   2.2120188e-02   5.1051845e-02  -6.1153007e-02   1.2882396e-02  -7.4719535e-02  -1.6695564e-01   1.3187059e-01  -1.9577067e-01  -4.2036025e-04  -7.3237623e-02  -4.3302674e-02  -6.4893370e-02  -3.5692679e-01  -1.2498981e-01  -1.9863732e-01
   4.9909630e-03  -1.4695548e-02  -1.1950543e-02  -3.3229796e-02   8.4617810e-03  -1.8727640e-02  -7.0594313e-02  -2.8001585e-02   7.8469079e-02  -8.0117350e-03   7.1729899e-02   3.7173248e-02  -8.8800332e-02  -1.4595629e-01  -6.7774046e-02  -9.0848283e-02   9.9127458e-03   1.3366864e-01  -2.3272445e-01  -2.0630090e-01  -1.6883163e-01   4.3877620e-03  -2.4491670e-02  -4.9046294e-01  -1.5978381e-01
   6.5084204e-04   3.8736336e-03  -4.6258931e-03   1.7373143e-02  -2.6450597e-02  -3.5218589e-02   3.5610855e-02   2.5195718e-02   7.1878189e-02   2.1776871e-02   1.6225306e-02   4.6208269e-02   3.6731611e-03  -3.7902303e-02  -7.8831310e-02   2.8408690e-01  -2.4581091e-01   9.9412726e-02   1.5479557e-01  -4.6105397e-02  -3.6616395e-02   1.3404739e-01   2.5861830e-01   8.0841000e-02  -2.3874036e-01
   2.2304277e-03  -7.7382983e-03   1.8441851e-02  -1.9432270e-02   6.4313330e-03   4.9138921e-02  -5.7535288e-02  -8.1844660e-02   9.6411938e-02  -5.5895785e-03  -2.1527741e-01  -1.1553461e-01  -6.7842065e-02   1.5690019e-01  -1.6671708e-01   7.7491524e-02   1.1054118e-01  -1.6870168e-01   1.0831484e-01   3.7136934e-03  -3.1404221e-01  -2.7119009e-01  -3.4593956e-02  -8.5373288e-02  -1.7423971e-01
   6.7938586e-03   1.5499061e-02  -6.4629331e-03   1.8932798e-02  -7.6472430e-03  -5.3151815e-03  -4.3967470e-02  -2.2269522e-02  -4.4149788e-02   4.4432601e-03   2.1694237e-02  -7.2953645e-02   2.3884380e-01   8.5081080e-02   3.3541999e-02  -1.2853617e-01   1.4047280e-01   3.8232249e-03   3.2987081e-02  -1.5913171e-01  -2.3545993e-02  -9.9628627e-02   1.2314991e-01  -5.8287134e-02   2.7137079e-01
   2.8100170e-03   1.1886895e-02  -1.5618269e-02   1.6569324e-02  -5.8221028e-03  -6.9200065e-03  -7.7312876e-04   1.7157280e-02   6.4007190e-02   4.4916414e-02  -3.8194934e-02  -7.8645989e-02  -1.3518624e-01   2.8352469e-02  -3.0018780e-02   1.3012635e-01   1.2505854e-01   6.8525139e-02   1.1823275e-01   1.2310356e-01   1.3887906e-01   2.3545211e-01  -3.3526978e-02  -1.4059040e-01   1.9493165e-01
  -1.7620478e-03   1.5934895e-02  -7.0547360e-04   2.5286582e-02  -1.6676488e-02   5.1880062e-02   3.2440634e-02  -1.8575376e-02   1.2413642e-01   9.3044580e-02  -1.2157299e-01   2.1003111e-02   7.6028622e-02  -7.0983739e-02   6.3930342e-02   1.3153150e-01  -2.1475240e-01  -3.3092618e-02  -5.6175098e-02   8.5689755e-03   4.7039113e-02   7.7387054e-03  -1.3315241e-01  -2.1374896e-02   5.6792263e-02
   2.8859292e-03  -4.0951447e-03  -1.9645202e-02  -1.8842908e-02   1.2737927e-03  -2.5635024e-02  -5.0966310e-02   4.3821430e-02  -1.2993763e-01  -4.8365086e-02   4.4053155e-02   6.9531311e-03  -2.2037965e-02  -6.0323653e-02   5.4140457e-03  -1.0544913e-02  -5.1741911e-02  -1.6228825e-01  -1.5200209e-02   9.6071375e-02   2.3175970e-02  -7.1443383e-02   7.8680241e-02   1.6970431e-02  -2.2578456e-01
  -8.5738087e-03  -9.9918898e-03   5.8847475e-03   1.0169451e-02   1.0553634e-02   1.6390034e-02   2.1302509e-02  -1.3146542e-03   6.2539292e-02  -5.1576420e-03   8.2457434e-02  -8.6288932e-02  -3.1558228e-03  -7.9212852e-02  -4.3453731e-02   8.0812928e-03  -1.0468995e-01  -7.1662978e-02  -1.6653134e-01   9.5824961e-02   1.1851282e-01   3.0087281e-02  -1.7793613e-01  -1.1980882e-02  -1.4812208e-02
  -8.4823461e-04   9.1259157e-03   5.4384248e-03   2.8530596e-02   1.1385272e-02   5.9497662e-04   2.8742541e-02  -2.6122285e-02   4.3124964e-02   1.4007390e-02   1.4178714e-01  -2.4595800e-02   4.0051330e-02  -2.2022552e-02   2.0790895e-02   1.0658704e-01  -7.4398571e-02   1.2721006e-01  -1.5102649e-01  -1.0005286e-01   4.8667446e-02   5.4353083e-02   3.4235483e-02   1.0504140e-01   1.1693655e-01
   4.4674838e-04  -4.7108509e-03   6.1464648e-03  -1.1816155e-02  -2.4692831e-03   2.2734184e-02  -1.0245656e-02  -2.0636936e-02   4.0582559e-02  -1.1233151e-01   1.4197607e-02   3.4806044e-02  -3.9388638e-02   3.4328164e-02  -4.1419783e-02  -1.7447940e-01   2.1272762e-01  -2.2305768e-01  -5.8337766e-02  -1.0214779e-01  -9.3482053e-02  -2.1602104e-02  -3.5846816e-01  -1.2531551e-01  -3.0265619e-01
   4.5354555e-03  -1.3956799e-02  -1.2154846e-02  -3.3813571e-02   1.9637464e-02  -2.8651746e-02  -4.9214639e-02  -1.2241580e-02   4.6069670e-02   5.7960071e-03   8.2602544e-02   4.2993959e-02  -1.4131879e-01  -1.5376900e-01  -3.0709254e-02  -1.4248438e-01  -5.7013325e-02   1.3053845e-01  -1.6609082e-01  -1.5367886e-01  -1.5720341e-01   3.2121114e-02  -4.3370780e-02  -4.9126083e-01  -4.9261729e-02
   1.0821592e-03   3.3942068e-03  -1.6813126e-03   1.7742619e-02  -2.1805922e-02  -2.3889568e-02   2.7188372e-02   1.4135756e-02   9.4384198e-02   6.2207987e-03   2.4390179e-02   7.0863194e-02   4.4755048e-03  -6.3354483e-02  -1.3685461e-01   3.5108378e-01  -2.9910800e-01   1.2765270e-01   2.1149316e-01  -4.7899178e-02  -6.8160493e-02   1.1596932e-01   1.5153305e-01   1.3188891e-01  -2.4472654e-01
   1.6408471e-03   1.3362759e-03   1.5476167e-02  -1.9609300e-02  -5.0123944e-03   4.9564499e-02  -4.3789249e-02  -7.3476936e-02   9.3369115e-02  -9.7994215e-03  -2.2796344e-01  -1.2460922e-01  -9.5295649e-02   1.3870663e-01  -2.0821397e-01   6.4340790e-02   1.1177954e-01  -1.2933259e-01   1.5531120e-01   3.0470401e-03  -2.8687199e-01  -3.3668522e-01  -1.1555155e-02  -9.5141710e-02  -1.3245920e-01
   6.2408361e-03   1.5123204e-02  -1.8171486e-03   2.2537898e-02  -9.8940320e-03  -1.8052032e-02  -5.0618451e-02  -2.8864109e-02  -3.9806961e-02  -9.9342619e-04   1.6310347e-02  -6.9818450e-02   2.1969901e-01   1.0789260e-01   1.4244454e-02  -9.8752886e-02   1.6266778e-01   4.2444460e-02   4.2089939e-02  -1.4495988e-01   1.6121597e-02  -1.0165853e-01   1.4789102e-01  -5.2865328e-02   2.6371890e-01
   3.2654641e-03   1.5011317e-02  -1.2852338e-02   1.9957374e-02  -4.8082996e-03  -5.1645649e-03   1.6703006e-03   2.8212628e-02   6.8494448e-02   2.9475595e-02  -5.9346056e-02  -6.5383678e-02  -1.3183506e-01   2.2732605e-02  -2.0234918e-02   1.2232354e-01   6.7236178e-02   7.4458235e-02   8.8100446e-02   1.0952026e-01   1.1576706e-01   2.2548730e-01  -4.8698865e-02  -1.7598833e-01   1.5186650e-01
  -1.2984853e-03   1.6179079e-02  -3.6843807e-03   2.5671228e-02  -2.2805566e-02   5.6761576e-02   2.9977172e-02  -2.4725964e-02   1.4361124e-01   1.1499117e-01  -1.3690358e-01   4.2264254e-02   7.6080233e-02  -7.7689930e-02   5.6506287e-02   1.4376463e-01  -2.6596623e-01  -4.5006071e-02  -5.1603393e-02   1.8747070e-02   5.4500246e-02   5.8994960e-03  -1.5063834e-01  -4.1217333e-03   9.3157170e-02
   3.6731682e-03  -2.4338922e-03  -1.5426986e-02  -1.7899525e-02  -3.8926232e-03  -2.9048811e-02  -5.4972107e-02   6.3554575e-02  -1.1441695e-01  -5.9532195e-02   2.7514012e-02   5.2852578e-02  -3.5022191e-02  -6.5431846e-03  -4.6622329e-02  -6.1670076e-02  -1.3797433e-01  -1.2617919e-01  -1.9140902e-02   6.4921803e-02   3.4682500e-02  -2.9499797e-02   4.9211628e-02  -7.5330754e-02  -1.7978186e-01
  -9.1192984e-03  -5.4708092e-03   3.9787590e-03   1.0864784e-02   8.4006516e-03   3.0960103e-02   3.0487057e-02  -1.0423522e-02   7.8475430e-02  -6.8639119e-03   1.2056523e-01  -8.2828443e-02   1.5355380e-02  -9.9213713e-02  -3.2230759e-02   2.6611821e-02  -8.2785828e-02  -8.5330247e-02  -1.8839909e-01   1.0213327e-02   1.9216773e-01   4.8484655e-02  -2.0886370e-01   1.1397124e-02   4.6384229e-02
  -1.3454566e-03   1.1119346e-02   1.4120490e-02   3.7105476e-02   1.4370298e-02  -9.0627475e-03   3.5734840e-02  -2.0090973e-02   5.6855736e-02  -5.5087256e-03   1.1859404e-01  -3.5095886e-02   2.3622050e-02  -1.9276203e-02  -7.8464571e-03   7.9321373e-02  -7.8058135e-02   1.4368659e-01  -1.4891662e-01  -5.6771625e-02   9.2100354e-02   1.8722018e-02   2.8469955e-02   1.6649525e-01   1.0745997e-01
   1.4808543e-03  -7.9333849e-03   2.9419020e-03  -1.0519070e-02  -3.9313847e-03   1.4261094e-02  -9.6196667e-03  -2.0451630e-02   3.1690143e-02  -1.0681056e-01   3.3518077e-03   1.3441323e-02  -1.2072138e-02   5.6690561e-02   2.7604232e-03  -1.7674436e-01   2.8347416e-01  -2.3047022e-01  -1.1187500e-01  -1.1945904e-01  -1.2877155e-01   2.7697249e-02  -3.1400310e-01  -1.1434765e-01  -3.9025050e-01
   4.1319861e-03  -1.1987586e-02  -1.1937293e-02  -3.2304215e-02   2.7066150e-02  -3.7546419e-02  -2.0826795e-02   7.6091973e-03   6.6783182e-03   2.3874220e-02   8.5283145e-02   4.8294119e-02  -1.9109695e-01  -1.6951646e-01   1.3510665e-02  -1.9157450e-01  -1.2130336e-01   1.2587968e-01  -9.5889574e-02  -8.8617265e-02  -1.3720472e-01   5.5410123e-02  -5.5144358e-02  -4.6791015e-01   7.3261944e-02
   1.3496725e-03   2.5522449e-03   1.8680350e-03   1.8412347e-02  -1.3860066e-02  -8.4266906e-03   1.7182041e-02  -1.0362824e-03   1.0904359e-01  -1.3884913e-02   3.6587215e-02   9.7394168e-02   8.7338669e-03  -9.2028234e-02  -1.8847603e-01   4.1082347e-01  -3.4120752e-01   1.5393983e-01   2.6170778e-01  -3.8038027e-02  -1.0154178e-01   9.1724812e-02   2.7143168e-02   1.7974840e-01  -2.2444969e-01
   8.7357714e-04   1.1343265e-02   1.1739132e-02  -1.8780905e-02  -1.7662458e-02   5.0188077e-02  -2.4164214e-02  -6.1022718e-02   8.2232544e-02  -1.4594693e-02  -2.3284547e-01  -1.2680054e-01  -1.1403308e-01   1.1244926e-01  -2.3943440e-01   4.8138241e-02   1.0287065e-01  -8.9628076e-02   2.0616051e-01   6.8349018e-03  -2.4026687e-01  -3.9868877e-01   1.9466485e-02  -9.1586988e-02  -6.5913641e-02
   4.7931546e-03   1.3554358e-02   2.2842802e-03   2.3899908e-02  -1.2865398e-02  -3.0269607e-02  -5.1854244e-02  -3.7704571e-02  -3.2661309e-02  -6.6858170e-03   1.3569874e-02  -6.2258304e-02   1.8887366e-01   1.2144501e-01  -1.7955554e-02  -5.2373878e-02   1.7107136e-01   6.6986018e-02   3.2189847e-02  -1.2203026e-01   6.6596594e-02  -9.7420270e-02   1.6438151e-01  -3.9572130e-02   2.3393625e-01
   3.4127620e-03   1.7135321e-02  -9.4332842e-03   2.2427617e-02  -7.0416955e-03  -4.9727621e-04   8.7284930e-03   3.2661850e-02   7.1576859e-02   2.0164973e-02  -8.4812691e-02  -4.4192590e-02  -1.2076113e-01   9.4106532e-03  -4.3916559e-03   1.1604773e-01  -9.8698906e-03   9.0484417e-02   5.0957562e-02   8.3229422e-02   6.5618744e-02   1.9546285e-01  -4.0853985e-02  -1.9754698e-01   7.9272955e-02
  -7.3454244e-04   1.5261979e-02  -5.9485604e-03   2.4021203e-02  -2.7640097e-02   5.6545924e-02   2.5527791e-02  -2.6535746e-02   1.5706723e-01   1.2598506e-01  -1.4182075e-01   5.9794937e-02   6.6038360e-02  -7.3781944e-02   3.6302323e-02   1.5173705e-01  -2.9116857e-01  -3.6476456e-02  -3.5576402e-02   2.8719150e-02   6.4606033e-02   7.1902782e-03  -1.4978163e-01   5.1396551e-03   1.1744620e-01
   4.6264222e-03  -4.0246470e-04  -1.0959796e-02  -1.6170792e-02  -6.1766787e-03  -3.4486127e-02  -6.0298573e-02   8.4798712e-02  -9.5661323e-02  -7.6511672e-02   1.6571225e-02   9.6975655e-02  -4.4632869e-02   4.2304427e-02  -1.0411104e-01  -1.1354247e-01  -2.1939323e-01  -9.5672105e-02  -2.7867252e-02   3.5651080e-02   6.2685278e-02   2.4263113e-02  -1.6504738e-03  -1.7816792e-01  -1.2011035e-01
  -9.9371495e-03  -1.1951644e-03   9.3101117e-05   9.1048111e-03   3.9470967e-03   4.5102663e-02   3.8307835e-02  -1.9156325e-02   8.1563588e-02  -3.7712631e-03   1.6187405e-01  -7.1230782e-02   3.6293529e-02  -1.1092906e-01  -1.9542877e-02   5.2741783e-02  -6.2964399e-02  -1.0880216e-01  -1.9821221e-01  -6.4643456e-02   2.6108652e-01   6.9681887e-02  -2.2579018e-01   3.1274551e-02   1.1167340e-01
  -1.1709203e-03   1.2509808e-02   2.3518213e-02   4.5785284e-02   1.8083267e-02  -2.1544849e-02   3.6083674e-02  -1.5312884e-02   6.9804398e-02  -2.1024262e-02   7.8882066e-02  -4.5366637e-02   8.0165408e-03  -6.0157176e-03  -4.9083464e-02   4.4573725e-02  -7.9751222e-02   1.6630923e-01  -1.3288416e-01  -1.1814403e-02   1.0620357e-01  -2.2181576e-02   3.6205236e-02   2.0417039e-01   8.9274926e-02
   1.8534562e-03  -1.0151670e-02  -1.3000558e-03  -9.1049192e-03  -5.7434120e-03   3.6287020e-03  -8.0747708e-03  -1.3469693e-02   1.4812074e-02  -8.4715016e-02  -1.0371931e-02  -1.2632523e-02   1.7867564e-02   7.7138328e-02   5.7975700e-02  -1.7319818e-01   3.3450482e-01  -2.1329045e-01  -1.5623056e-01  -1.1876035e-01  -1.4121645e-01   7.8479764e-02  -2.1902249e-01  -9.4837343e-02  -4.4301609e-01
   3.7880286e-03  -8.7289677e-03  -1.1350907e-02  -2.8633346e-02   2.9989939e-02  -4.4711953e-02   1.2698616e-02   3.0562808e-02  -3.8173218e-02   4.5706682e-02   7.9051279e-02   5.3661587e-02  -2.3307318e-01  -1.9208206e-01   6.1646779e-02  -2.3635454e-01  -1.8077598e-01   1.2240252e-01  -2.5669193e-02  -1.4983716e-02  -1.0697488e-01   7.1968018e-02  -5.7103519e-02  -4.2012027e-01   2.0401763e-01
   1.3428828e-03   1.6342587e-03   5.9121683e-03   1.9469458e-02  -3.1041053e-03   1.0287150e-02   6.3631804e-03  -1.8763407e-02   1.1411041e-01  -3.5802490e-02   5.2241150e-02   1.2377641e-01   1.6570045e-02  -1.2350501e-01  -2.3049998e-01   4.5968187e-01  -3.7160333e-01   1.7490544e-01   3.0404775e-01  -1.5138561e-02  -1.3280885e-01   6.1998511e-02  -1.0447940e-01   2.2435925e-01  -1.7354273e-01
  -2.4292289e-05   2.1699137e-02   7.6328663e-03  -1.6781372e-02  -3.0745723e-02   5.0709714e-02   2.4315888e-04  -4.5381098e-02   6.3158149e-02  -1.9457526e-02  -2.2959411e-01  -1.2265154e-01  -1.2266916e-01   7.7550545e-02  -2.5757219e-01   2.8704752e-02   8.2565046e-02  -5.1838738e-02   2.5652551e-01   1.4244395e-02  -1.7580030e-01  -4.5458149e-01   5.6573954e-02  -7.6919052e-02   2.3759174e-02
   2.4552119e-03   1.0990718e-02   5.4175207e-03   2.2468996e-02  -1.6839750e-02  -4.1063320e-02  -4.7087649e-02  -4.8312136e-02  -2.4328739e-02  -1.2545752e-02   1.6092159e-02  -4.9537646e-02   1.4883813e-01   1.2362891e-01  -6.2029463e-02   1.0027497e-02   1.6479783e-01   7.4818355e-02   3.4983880e-03  -9.1188525e-02   1.2687129e-01  -8.7886246e-02   1.7084018e-01  -1.6809258e-02   1.8787651e-01
   3.1398560e-03   1.7896148e-02  -5.7326454e-03   2.3216315e-02  -1.2563561e-02   7.2391751e-03   1.9930099e-02   2.8695449e-02   7.2315374e-02   1.8353043e-02  -1.1221856e-01  -1.6756079e-02  -1.0263395e-01  -1.3497931e-02   1.7522536e-02   1.1303671e-01  -9.9395327e-02   1.1702923e-01   1.1026898e-02   4.3789075e-02  -1.3516593e-02   1.4249906e-01  -7.5425084e-03  -1.9652248e-01  -2.3014236e-02
  -2.0065364e-04   1.3185334e-02  -6.8642944e-03   2.0017176e-02  -2.9964048e-02   5.0188583e-02   1.8765110e-02  -2.2891933e-02   1.5961164e-01   1.2094499e-01  -1.3207772e-01   6.9972707e-02   4.4721721e-02  -5.6821478e-02   4.2841287e-03   1.5391849e-01  -2.7858835e-01  -2.0921110e-03  -1.0345431e-02   3.5548918e-02   7.5862272e-02   1.3049648e-02  -1.2958494e-01   1.4958860e-03   1.2130228e-01
   5.5062302e-03   1.6154144e-03  -7.4158224e-03  -1.3942169e-02  -4.8319098e-03  -4.1101091e-02  -6.4989700e-02   1.0315128e-01  -7.7998594e-02  -9.4450183e-02   1.2298184e-02   1.2903063e-01  -4.5081214e-02   7.4483951e-02  -1.5519568e-01  -1.5352064e-01  -2.8060292e-01  -7.9290754e-02  -4.2552013e-02   1.6940406e-02   1.0838826e-01   7.2926550e-02  -6.3568953e-02  -2.6923560e-01  -5.9422517e-02
  -1.0888069e-02   2.0213137e-03  -4.7674952e-03   5.2280296e-03  -2.4539227e-03   5.4562751e-02   4.1961087e-02  -2.6412976e-02   6.8236982e-02   3.5640494e-03   1.9704361e-01  -5.3702992e-02   6.0032572e-02  -1.0999158e-01  -1.1266281e-02   8.2330123e-02  -4.7454309e-02  -1.4040620e-01  -1.9184975e-01  -1.1053151e-01   3.0768263e-01   8.9676179e-02  -2.2029126e-01   4.5460719e-02   1.6907925e-01
  -3.4189588e-04   1.2805266e-02   3.1430335e-02   5.2376903e-02   2.1934882e-02  -3.3963736e-02   2.8697464e-02  -1.2592081e-02   7.9281298e-02  -2.8453527e-02   2.9513407e-02  -5.1182981e-02  -4.1952263e-03   1.6440901e-02  -9.2474606e-02   8.4604046e-03  -8.0993895e-02   1.8781686e-01  -1.0306918e-01   2.9021446e-02   7.9625936e-02  -5.6180081e-02   5.6149043e-02   2.0616134e-01   6.3548192e-02
   1.4142823e-03  -1.1044085e-02  -5.9348836e-03  -7.5627028e-03  -7.7613111e-03  -8.0875532e-03  -5.4483340e-03   1.2984413e-03  -9.2289718e-03  -4.7437621e-02  -2.5961332e-02  -4.1994623e-02   4.7749805e-02   9.2752613e-02   1.2126357e-01  -1.6377674e-01   3.5741479e-01  -1.6946198e-01  -1.8584861e-01  -9.6803515e-02  -1.2528454e-01   1.2523803e-01  -7.4904384e-02  -7.0511787e-02  -4.4611732e-01
   3.4929202e-03  -4.2569600e-03  -1.0487725e-02  -2.2919997e-02   2.8107301e-02  -4.9536525e-02   4.8572394e-02   5.4809037e-02  -8.5748762e-02   7.0174421e-02   6.3711684e-02   5.9724831e-02  -2.6151442e-01  -2.1854155e-01   1.0957443e-01  -2.7511645e-01  -2.3291761e-01   1.2153575e-01   4.1404705e-02   6.2706694e-02  -6.5157761e-02   7.9713931e-02  -4.7120487e-02  -3.4875969e-01   3.3766659e-01
   9.9043649e-04   8.8177341e-04   1.0272729e-02   2.0955236e-02   9.6729206e-03   3.0892088e-02  -4.5625625e-03  -3.7003170e-02   1.0884089e-01  -5.6001586e-02   6.9927312e-02   1.4743361e-01   2.7713731e-02  -1.5627015e-01  -2.6050383e-01   4.9380252e-01  -3.9020438e-01   1.8738873e-01   3.3750587e-01   2.0890107e-02  -1.5775279e-01   2.7428074e-02  -2.3201852e-01   2.6513996e-01  -9.0423853e-02
  -9.8627905e-04   3.1703816e-02   3.6590521e-03  -1.3566662e-02  -4.3289408e-02   5.0523802e-02   2.7775413e-02  -2.7584053e-02   3.7133342e-02  -2.4035431e-02  -2.1791985e-01  -1.1366684e-01  -1.2088370e-01   3.4153561e-02  -2.6017832e-01   6.1925770e-03   5.0310814e-02  -1.7573961e-02   3.0114925e-01   2.3967776e-02  -9.6394043e-02  -5.0073280e-01   9.7227538e-02  -5.4119959e-02   1.3189270e-01
  -6.3518816e-04   7.7283241e-03   7.3251535e-03   1.8078495e-02  -2.1880893e-02  -4.9685579e-02  -3.6457147e-02  -5.9807672e-02  -1.6361594e-02  -1.8372350e-02   2.5337700e-02  -3.1465979e-02   1.0256041e-01   1.1379929e-01  -1.1539262e-01   8.5136946e-02   1.4432513e-01   6.5494472e-02  -4.0904589e-02  -5.2933504e-02   1.9339426e-01  -7.4413968e-02   1.6678698e-01   1.6158375e-02   1.3301083e-01
   2.3924335e-03   1.7039015e-02  -2.0630582e-03   2.1791225e-02  -2.0941278e-02   1.7883749e-02   3.4137322e-02   1.5246552e-02   7.0414182e-02   2.4098130e-02  -1.3855245e-01   1.4800515e-02  -7.9422725e-02  -4.6346769e-02   4.4080706e-02   1.1366282e-01  -1.9283094e-01   1.5185446e-01  -2.7313513e-02  -8.1474677e-03  -1.1963966e-01   6.7330540e-02   4.8196907e-02  -1.6674962e-01  -1.5045231e-01
   1.5321172e-04   1.0123784e-02  -6.0207543e-03   1.3629648e-02  -2.8757497e-02   3.7275379e-02   9.8955662e-03  -1.3654580e-02   1.4680831e-01   9.6927355e-02  -1.0483975e-01   6.9052996e-02   1.3012087e-02  -2.6087861e-02  -3.6578450e-02   1.4946593e-01  -2.1976892e-01   5.9333749e-02   2.0380151e-02   3.7177585e-02   8.7655384e-02   2.3497578e-02  -9.0548865e-02  -1.7137995e-02   9.8136417e-02
   5.9903324e-03   3.1443929e-03  -6.0452856e-03  -1.1835265e-02   7.7214406e-04  -4.7281843e-02  -6.7037534e-02   1.1375124e-01  -6.6779438e-02  -1.0712187e-01   1.4572334e-02   1.3783498e-01  -3.2016907e-02   7.7892530e-02  -1.8609392e-01  -1.6646726e-01  -3.0518732e-01  -8.4055005e-02  -6.4438611e-02   1.6577575e-02   1.6781265e-01   9.7534300e-02  -1.2470982e-01  -3.2438570e-01  -1.0258005e-02
  -1.1711164e-02   3.3464534e-03  -9.0907478e-03   7.3534438e-05  -9.8536913e-03   5.4784362e-02   3.8567512e-02  -3.1558563e-02   3.7972698e-02   1.3598861e-02   2.1406913e-01  -3.4356052e-02   8.5853910e-02  -9.3006020e-02  -1.5647267e-02   1.0910062e-01  -3.6884484e-02  -1.7512027e-01  -1.6588007e-01  -1.1144084e-01   3.1340221e-01   1.0310518e-01  -1.8575317e-01   5.2877395e-02   2.0358552e-01
   9.5606368e-04   1.1649932e-02   3.5270174e-02   5.4505702e-02   2.5063164e-02  -4.2588605e-02   1.3979889e-02  -1.2416226e-02   8.2171324e-02  -2.4261583e-02  -1.8685721e-02  -4.7866159e-02  -9.9125228e-03   4.4324182e-02  -1.2321623e-01  -2.0748335e-02  -8.4214353e-02   1.9635084e-01  -6.1850175e-02   5.9839580e-02   6.0002118e-03  -7.0004022e-02   8.2987146e-02   1.6566225e-01   3.2637061e-02
   1.5242675e-04  -1.0525648e-02  -1.0204828e-02  -5.9243631e-03  -9.9843615e-03  -1.9548624e-02  -1.4147427e-03   2.3290804e-02  -3.8155279e-02   1.2655553e-03  -4.1598754e-02  -7.2312863e-02   7.5553842e-02   1.0111767e-01   1.8701419e-01  -1.4884101e-01   3.4592950e-01  -1.0066905e-01  -1.9522092e-01  -5.3893981e-02  -7.8019193e-02   1.6230104e-01   1.1203885e-01  -4.5401140e-02  -3.9083758e-01
   3.2088271e-03   1.2310461e-03  -9.5263179e-03  -1.5503551e-02   2.1664322e-02  -5.1589217e-02   8.3099289e-02   7.7911005e-02  -1.3226561e-01   9.5668810e-02   3.9561441e-02   6.7044511e-02  -2.7031429e-01  -2.4402706e-01   1.5281681e-01  -3.0589164e-01  -2.7481194e-01   1.2301726e-01   1.0241035e-01   1.3979022e-01  -1.1289760e-02   7.7215104e-02  -2.3645968e-02  -2.5596061e-01   4.6722279e-01
   2.7677744e-04   4.5175760e-04   1.4637440e-02   2.2814066e-02   2.3368700e-02   5.1487795e-02  -1.4958258e-02  -5.3341933e-02   9.3637497e-02  -7.0307028e-02   8.7412580e-02   1.6532124e-01   4.1480616e-02  -1.8740148e-01  -2.7679264e-01   5.0898422e-01  -3.9703597e-01   1.8846106e-01   3.6115993e-01   6.8284296e-02  -1.7208036e-01  -1.1326974e-02  -3.4338893e-01   3.0051108e-01   2.2744105e-02
  -1.9280997e-03   4.0556502e-02   3.9106345e-04  -9.2414728e-03  -5.4108811e-02   4.8724484e-02   5.6266059e-02  -8.6817070e-03   5.8989166e-03  -2.8125255e-02  -1.9738719e-01  -1.0235457e-01  -1.0963391e-01  -1.6914992e-02  -2.4514902e-01  -1.8698915e-02   6.6511877e-03   1.2433696e-02   3.3392148e-01   3.4366105e-02  -6.4983293e-03  -5.3236235e-01   1.3817839e-01  -2.6687164e-02   2.5061956e-01
  -4.1751075e-03   4.1527252e-03   7.9632807e-03   1.1057808e-02  -2.7679576e-02  -5.5540409e-02  -2.0966617e-02  -7.0915086e-02  -9.8102053e-03  -2.3823580e-02   4.0962626e-02  -8.6155746e-03   5.3247637e-02   9.3043591e-02  -1.7348441e-01   1.6654093e-01   1.1159773e-01   4.1501596e-02  -9.4988341e-02  -8.0080163e-03   2.5930014e-01  -5.8682681e-02   1.5328445e-01   5.8445140e-02   7.7166384e-02
   1.2103252e-03   1.4498983e-02   1.3223604e-03   1.8012111e-02  -3.1235657e-02   3.0676108e-02   4.9524597e-02  -7.5927003e-03   6.6436653e-02   3.5997055e-02  -1.6046125e-01   4.8105324e-02  -5.3948163e-02  -8.7397074e-02   7.2008048e-02   1.1649783e-01  -2.8126303e-01   1.8932024e-01  -5.9955370e-02  -7.0065782e-02  -2.4515994e-01  -2.4835340e-02   1.1768918e-01  -1.0634311e-01  -2.9314056e-01
   1.8727091e-04   6.4228963e-03  -3.3689680e-03   5.2120729e-03  -2.3446981e-02   1.8281146e-02  -1.6365289e-04   5.4045393e-05   1.1590838e-01   5.4330614e-02  -5.9658192e-02   5.3911870e-02  -2.5708049e-02   1.6674612e-02  -8.1232512e-02   1.3866717e-01  -1.1244067e-01   1.4317918e-01   5.1863712e-02   3.2926129e-02   1.0025566e-01   3.6713814e-02  -3.5042997e-02  -4.9078207e-02   4.5201974e-02
   5.7552592e-03   3.6222347e-03  -7.8284175e-03  -1.0728564e-02   1.0853700e-02  -5.0779073e-02  -6.4817372e-02   1.1178525e-01  -6.6815981e-02  -1.0847338e-01   2.2698562e-02   1.1404931e-01  -3.9454455e-03   4.2894300e-02  -1.8489320e-01  -1.3832925e-01  -2.7864764e-01  -1.1370647e-01  -9.3472992e-02   3.8835869e-02   2.3147814e-01   8.0901521e-02  -1.7462433e-01  -3.2259043e-01   1.6636557e-02
  -1.2065119e-02   2.0921529e-03  -1.1142027e-02  -5.1330667e-03  -1.6812129e-02   4.1940816e-02   2.5820830e-02  -3.4383820e-02  -6.0523850e-03   2.3965154e-02   2.0071379e-01  -1.8320471e-02   1.1158313e-01  -5.8446165e-02  -4.1126634e-02   1.2542518e-01  -3.0509591e-02  -2.0503769e-01  -1.1896325e-01  -5.7353027e-02   2.6275985e-01   1.0425325e-01  -1.1937181e-01   5.3463913e-02   1.9976892e-01
   2.4067485e-03   8.9169702e-03   3.2605606e-02   5.0128121e-02   2.6436243e-02  -4.3654672e-02  -5.8905745e-03  -1.4992713e-02   7.5664219e-02  -6.2742923e-03  -5.2719951e-02  -3.1475442e-02  -6.1350501e-03   7.1847251e-02  -1.2581767e-01  -3.4060816e-02  -9.2114288e-02   1.7799669e-01  -1.3764551e-02   7.5170878e-02  -1.1310612e-01  -5.2570227e-02   1.0793761e-01   8.3740352e-02  -5.1561024e-05
  -1.8208397e-03  -8.6566858e-03  -1.3456000e-02  -4.2620205e-03  -1.2475663e-02  -2.9287236e-02   4.4251791e-03   5.0659992e-02  -6.9009802e-02   5.5578959e-02  -5.4972076e-02  -1.0066042e-01   9.9729168e-02   1.0073061e-01   2.4841386e-01  -1.2863438e-01   2.9684086e-01  -1.2596427e-02  -1.8041125e-01   6.8240304e-03   5.1362754e-04   1.8481016e-01   3.3085736e-01  -2.3305595e-02  -2.7548489e-01
   2.8648855e-03   7.4298452e-03  -8.7629154e-03  -6.9595971e-03   1.1544146e-02  -5.0666329e-02   1.1170620e-01   9.7061431e-02  -1.7317294e-01   1.2022676e-01   7.4599483e-03   7.6049530e-02  -2.5354194e-01  -2.6181233e-01   1.8705833e-01  -3.2602786e-01  -3.0307146e-01   1.2488414e-01   1.5448285e-01   2.1189735e-01   5.3608048e-02   6.4130634e-02   1.3778281e-02  -1.4538773e-01   5.8425889e-01
