  -6.5471496e-02   9.2645982e-02   3.0114121e-02   3.8535263e-02   1.8457920e-01  -4.4228978e-01   8.6012239e-03   5.4592862e-01   3.6831250e-01   6.6741058e-02   2.1352288e-01   7.7752063e-01   4.2328932e-01  -1.3215197e-01   1.0632298e+00  -9.4615502e-01   4.6587562e-01  -1.2582508e-02  -7.6715902e-02   1.1099716e+00   6.6199529e-01   7.6593289e-01  -1.5467710e+00  -6.3417430e-01  -1.5020407e+00  -1.1574200e+00
   3.4270419e-02   4.8230213e-02   7.8834599e-02  -1.0096507e-01   8.9988601e-02   6.3200680e-02   1.4464921e-01  -8.2982231e-03   3.3047181e-01   4.6544499e-01   2.9710847e-01   1.8287679e-01   3.3401729e-01   1.5578058e+00   1.5066073e-01   9.4144811e-01   9.4575829e-01   3.5211847e-02  -5.5978857e-01  -7.1736171e-01  -1.2700119e+00  -1.2552578e+00   7.6979238e-01  -1.0339913e+00   6.9853787e-01   7.6933210e-01
  -1.0686260e-02   1.6680879e-02  -2.2910343e-01   2.0254345e-02  -1.0246074e-01   1.8000608e-01  -8.2071672e-02   3.0679438e-01  -1.4737011e-02   2.0959977e-01  -4.3594017e-01   2.9997805e-02  -4.6007221e-02  -9.3482132e-01  -7.7968462e-01   1.8743240e-01  -8.7085991e-01  -8.3642479e-01   1.1092968e+00   1.9072416e+00  -1.4329947e+00  -3.5618682e-01  -1.4882440e+00  -8.3741417e-01   1.3097576e-02   1.5975232e+00
  -2.5681128e-02  -4.9852451e-02   2.2334521e-02   2.6318389e-02   3.8871511e-02   4.0204724e-01   1.2182125e-01   3.7364140e-01   6.4226688e-02   2.7984240e-01   5.7651937e-01   3.2627054e-01  -1.0299860e+00   1.2023393e-01  -3.5640084e-01   4.9431906e-01  -1.1474975e+00  -7.2934942e-01  -5.6526591e-01   1.2356108e+00   8.1342161e-01  -2.9629774e-01   1.1024196e-01  -2.2467400e-01   9.5098611e-01  -8.7107196e-01
   1.0068789e-02   7.4214818e-02  -7.9725784e-02  -2.8842431e-02   2.9693744e-02   5.8419218e-02  -2.7112913e-01  -2.4582287e-01   4.4071517e-01   3.2605950e-02   6.3592977e-01  -3.5390384e-01  -5.1968992e-01  -9.4839240e-02  -1.9786780e-01  -2.8025277e-01   9.6131312e-01  -1.6664319e-01   1.3732761e+00   7.1471393e-01  -4.7578537e-02   5.7600387e-01  -1.2715428e+00   6.7119881e-01  -5.2391226e-01   3.8076940e-02
   3.8511182e-02  -1.6007203e-02  -3.4550293e-02   1.8754524e-02   7.3978533e-03  -1.6082780e-01  -5.8168059e-02  -2.5222837e-01   9.1602366e-01   1.5089036e-02  -5.8457672e-01  -4.0278096e-01   4.8947869e-01  -5.2832670e-01   5.9145653e-01   1.2492588e+00   2.8188897e-01   6.2806925e-01   2.6692146e-01   1.8354159e+00  -4.4150541e-01  -1.5307119e+00   8.6303554e-02  -1.3249391e+00  -5.4190148e-01  -5.4150197e-01
  -7.4223051e-02  -4.8490883e-03   2.2436579e-01   1.6499535e-01  -4.0033654e-01   1.7036411e-01   1.2496087e-01  -4.9586797e-01   2.5798612e-01  -5.0889436e-01   6.6444574e-01   2.1508053e-01   8.7984278e-01  -1.9610505e-01  -2.9602507e-01  -1.0608223e-01   9.4619721e-01  -2.6582253e-01  -1.4027978e+00  -3.8264789e-02  -1.9146229e-01  -2.5794591e+00  -1.4227306e+00   1.2689276e+00  -1.3045116e-01  -1.5511337e+00
  -1.9993942e-01  -4.6519613e-02   2.4517227e-01  -2.2377964e-01  -4.1918884e-01   6.9023378e-02  -3.1976849e-02  -5.1003833e-03   2.5539276e-01   4.0190842e-01   3.2100803e-01  -8.4203774e-01   7.2174949e-01  -1.2237501e+00  -1.3179849e+00   2.9336702e-01   1.2910851e+00  -2.3381824e+00  -9.5379508e-01   7.2321269e-01  -2.0480166e-01   1.4376569e+00   1.9304184e+00   4.2589627e-01  -1.1037739e-01  -1.1121638e+00
   4.3398576e-02   1.0013877e-01   4.2743106e-02  -1.4802326e-01   4.5054244e-02  -5.1882650e-02  -2.8793841e-02   3.6923249e-02   1.2745442e+00  -8.9133194e-02   4.3524742e-01   2.7889396e-01   7.6449561e-03   3.8360350e-01   1.6972067e-01  -5.1895760e-01  -8.6493722e-01  -6.1705824e-01   1.5738079e-01  -2.7455723e-01   1.7957794e-01  -5.1313348e-01  -1.7963597e-01   6.3847382e-01  -1.5656262e+00  -1.8379200e+00
  -6.7737724e-02   4.8913114e-02  -2.7165205e-01  -9.4203340e-02  -9.7361065e-02   1.7950760e-02   4.6394890e-01   5.5634290e-01  -3.7272871e-01  -7.8066184e-01  -3.1349725e-02  -8.7057726e-01   7.2811990e-02   1.3131099e-01   1.9587986e-01   1.5516517e+00   3.0491924e-01  -5.4221210e-01  -7.6746350e-01   1.9330589e+00   4.4960532e-01   1.8397447e+00  -1.9389600e-01   5.9777623e-01   6.9112175e-01  -3.4246413e+00
  -3.7244497e-02   5.8440849e-02   2.1825944e-02   1.5968232e-02   1.1466335e-01  -3.1039296e-01   1.2338811e-02   3.0424741e-01   2.2852441e-01   5.6136579e-02   1.1757560e-01   4.9711344e-01   3.1533253e-01  -3.9295522e-02   6.5978625e-01  -5.6843439e-01   3.8022901e-01  -4.5394912e-03  -6.1743773e-02   6.3820644e-01   3.6506394e-01   5.0621977e-01  -8.2285586e-01  -5.3039288e-01  -8.8966567e-01  -5.5939024e-01
   2.1579217e-02   3.1122286e-02   5.5725813e-02  -6.9837754e-02   7.1659149e-02   6.6351418e-02   1.1271648e-01   1.9278002e-02   2.3094362e-01   3.5898933e-01   2.0076870e-01   1.6203950e-01   2.3525652e-01   1.0944164e+00   1.5675690e-01   7.1070320e-01   6.0538685e-01   5.6109124e-02  -4.0153881e-01  -4.3843111e-01  -7.8297362e-01  -7.2486303e-01   4.7606179e-01  -7.3390952e-01   4.8824468e-01   5.4498929e-01
  -5.5717716e-03   7.6197597e-03  -1.4594912e-01   1.5013593e-02  -6.8278665e-02   1.4614639e-01  -4.4682493e-02   1.8710089e-01   1.2837505e-02   1.5042366e-01  -2.0404656e-01  -1.1360316e-02  -6.3223862e-02  -6.0789511e-01  -5.2225210e-01   1.4021585e-01  -5.6067172e-01  -4.8733125e-01   6.1446387e-01   1.1033280e+00  -8.0588321e-01  -3.7230960e-01  -7.8703489e-01  -4.9551296e-01   7.6523312e-03   1.1278341e+00
  -7.8907205e-04  -1.5528010e-02   5.5174181e-03   6.1055120e-03  -9.4487982e-03   1.8903883e-02   2.9199856e-02   3.9560733e-02  -1.0687094e-01   2.6207261e-02  -1.1395638e-01   8.9679792e-02   6.4842348e-02  -1.3441923e-02   3.5008214e-02   3.5983809e-02  -2.7825818e-01  -3.8945337e-02  -9.3255860e-02  -5.7396461e-02  -1.7765754e-04  -5.6576724e-02   9.7965623e-02   4.0735098e-02   1.8505640e-01   1.1534014e-01
   4.7276183e-03   1.5238700e-02  -1.9356205e-02  -6.2998107e-03   6.1579252e-03  -7.8283633e-02  -4.8092400e-02  -3.7501600e-02   1.6191084e-01  -4.8126775e-02  -1.1642595e-01  -9.5430258e-02   1.1707171e-01  -6.6691479e-02   1.0681458e-01   9.0866109e-02   2.5151517e-01   1.1006273e-01   2.0539163e-01   2.5083582e-01  -1.1194005e-01  -9.7605643e-02  -1.6937095e-01  -1.7407055e-01  -2.8712446e-01   2.6561567e-02
   2.7650315e-03   1.2121101e-02  -1.0557567e-02  -5.8040401e-03   4.2607972e-03  -1.9692328e-04  -3.5851737e-02  -5.6564079e-02   1.0006899e-01   1.2084072e-02   5.8723229e-02  -6.1373195e-02  -4.9293851e-02  -3.3147136e-02  -4.0532010e-02  -7.3980331e-03   2.4141671e-01   2.1022730e-02   1.3620674e-01   1.1240720e-01  -5.1792999e-03   7.6879858e-02  -2.2017535e-01   1.8546879e-01  -8.8345325e-02  -1.1076521e-02
  -4.9601125e-02  -1.5632913e-03   1.1094888e-01   1.2660810e-01  -2.7368601e-01   1.1737312e-01   4.9996769e-02  -2.7189523e-01  -2.2538092e-02  -3.5052560e-01   3.1813307e-01   9.3766022e-02   4.5852082e-01  -6.2088555e-02  -5.3098108e-03  -2.8920538e-02   4.7372977e-01   6.5089970e-02  -8.0796975e-01  -1.0609741e-01  -1.6768623e-01  -1.3744638e+00  -9.2439704e-01   4.9376022e-01   1.1794278e-01  -1.4762372e-01
  -1.6065997e-01  -3.5833960e-02   1.6810679e-01  -1.7841521e-01  -3.2447509e-01   3.4673197e-02  -6.0753276e-02  -2.0687956e-03   9.8807211e-02   3.8041358e-01   1.7021814e-01  -5.2805084e-01   4.4354174e-01  -7.8190710e-01  -8.3291920e-01   8.5006729e-02   8.1210696e-01  -1.6475008e+00  -4.8333884e-01   4.3916074e-01  -1.9125138e-01   1.1458609e+00   1.3452060e+00   1.4368965e-01   8.4166388e-03  -1.9285477e-01
   2.9884088e-02   5.9329022e-02   1.2093641e-02  -1.0997924e-01   5.1507703e-02  -5.1024952e-02  -3.4158515e-02   8.5899594e-02   6.8939857e-01  -3.5223462e-02   2.6059545e-01   9.3805562e-02  -2.8465923e-02   3.0870839e-01   1.0526792e-01  -3.3363725e-01  -5.7797075e-01  -2.8591299e-01   2.6362153e-01  -2.3942101e-01   6.5153550e-02  -9.8992967e-02  -8.5000698e-02   2.0340690e-01  -8.8759151e-01  -6.0198409e-01
  -5.0436307e-02   3.8850201e-02  -2.2261807e-01  -6.3191227e-02  -8.2429592e-02   2.7725125e-02   3.1491446e-01   5.0995446e-01  -2.2507181e-01  -7.3678452e-01  -2.2479516e-03  -7.2516516e-01  -6.2861151e-02   1.2916720e-01   2.5704675e-01   1.0978667e+00   2.7877060e-01  -7.3929162e-02  -5.3610036e-01   1.1509600e+00   6.1774325e-02   1.1459591e+00  -4.2895498e-01   2.2600723e-01   5.2144629e-01  -2.0445597e+00
  -1.5492768e-02   3.0084032e-02   1.6437490e-02   7.9235556e-04   5.9958985e-02  -2.0102526e-01   2.2174325e-02   1.2650165e-01   1.1975036e-01   4.7029143e-02   3.1295784e-02   2.7891785e-01   2.3577491e-01   1.7927715e-02   3.5010203e-01  -2.7408491e-01   2.9312311e-01   9.9636417e-03  -5.9887140e-02   2.7003881e-01   1.4844737e-01   2.6833951e-01  -2.5619413e-01  -4.3752428e-01  -3.8962204e-01  -1.4124742e-01
   1.1152429e-02   1.5898456e-02   3.5319493e-02  -4.4623382e-02   5.2010833e-02   6.8137464e-02   8.8738839e-02   4.3957137e-02   1.4999719e-01   2.6888222e-01   1.3239848e-01   1.4447198e-01   1.4093457e-01   7.0624863e-01   1.5850775e-01   5.2042505e-01   3.2213477e-01   6.7804324e-02  -2.8600727e-01  -1.9870647e-01  -3.6901561e-01  -3.1844401e-01   2.6144961e-01  -4.7142941e-01   3.3624754e-01   3.7069758e-01
  -1.2519267e-03   1.5292562e-03  -8.1525572e-02   8.5030801e-03  -4.0635854e-02   1.1115209e-01  -1.5128768e-02   8.9497287e-02   3.8727280e-02   1.0786071e-01  -5.4896540e-02  -3.1358510e-02  -5.6696143e-02  -3.4836383e-01  -3.1426202e-01   1.0778595e-01  -2.9807536e-01  -2.1671653e-01   2.2787009e-01   4.7753224e-01  -3.3512827e-01  -3.5567333e-01  -2.8230505e-01  -2.2927782e-01  -5.4682789e-03   7.4026234e-01
   8.2798427e-03   4.6619825e-03  -6.9227230e-03  -1.8358033e-04  -2.5951288e-02  -1.4136626e-01  -2.5899130e-02  -1.0999780e-01  -1.4168226e-01  -9.1036290e-02  -3.3624384e-01  -3.6770494e-02   4.6726932e-01  -1.1620188e-01   1.6065650e-01  -2.0919843e-01   1.6590805e-01   2.4353636e-01   1.6888033e-01  -5.3088712e-01  -3.3076520e-01   1.1576443e-01  -1.8569191e-02   1.6484348e-01  -2.4673934e-01   4.6688604e-01
  -2.7596037e-03  -1.1402846e-02   1.1386217e-02   2.7802335e-03   4.5906473e-06  -9.4476429e-02   6.6708907e-02   8.5599590e-02  -6.5992873e-03  -5.0424037e-02  -3.2762237e-01   7.6125476e-02   2.8154990e-01  -1.8621858e-02   1.7002959e-01   1.6507894e-01  -1.1012705e-01   1.3463214e-01  -3.6977692e-01  -1.1701031e-02  -3.0255591e-02  -2.7191166e-01   3.0401292e-01  -4.2650525e-01  -8.6329235e-02  -2.7490631e-02
  -1.3230867e-02   1.7852579e-02   4.0456871e-03  -1.4251020e-02  -9.3423160e-04   6.2712131e-02  -8.8509288e-03   4.7298543e-02  -2.8237196e-01  -6.6154173e-03   2.7741464e-01   9.9002136e-02  -2.3523034e-01   1.8972302e-01  -2.6945685e-01  -5.0188251e-01   1.1594997e-01  -2.3565613e-01   6.5569408e-03  -6.7114058e-01   1.8168686e-01   6.9646138e-01  -2.0985705e-01   7.3126164e-01   1.5080857e-01   2.3991257e-01
  -2.7408101e-02   2.2354987e-03   3.1040327e-02   9.6547256e-02  -1.6393809e-01   7.8263173e-02   5.5255054e-03  -1.1980064e-01  -1.9130504e-01  -2.0288453e-01   5.1970916e-02   3.1160429e-02   1.5521301e-01   3.0035023e-02   1.7255448e-01   4.5798451e-02   1.2229503e-01   2.7602930e-01  -3.3912258e-01  -1.3994910e-01  -9.2753820e-02  -4.9505458e-01  -4.9936994e-01  -3.7004705e-02   2.5978044e-01   6.3381237e-01
  -1.2419077e-01  -2.5344420e-02   1.1026551e-01  -1.3438388e-01  -2.3700318e-01   8.5887514e-03  -7.4184810e-02  -1.2366269e-02  -3.0725574e-03   3.5534559e-01   5.7574777e-02  -2.5995622e-01   2.2955016e-01  -4.1166741e-01  -4.5574655e-01  -7.2364140e-02   4.3216903e-01  -1.0553762e+00  -1.1458919e-01   1.8849913e-01  -1.6841436e-01   8.1500897e-01   8.1902822e-01  -3.4747311e-02   9.1586183e-02   3.7501662e-01
   2.0474519e-02   2.9089930e-02  -5.8201470e-03  -7.5791360e-02   5.6779855e-02  -4.6071600e-02  -3.1250993e-02   1.0546064e-01   2.6426140e-01   1.2003401e-02   1.2916809e-01  -2.8031718e-02  -4.1329453e-02   2.2785121e-01   5.0023771e-02  -1.9161160e-01  -3.4242740e-01  -3.1223117e-02   3.2424261e-01  -1.8503365e-01  -3.6891457e-03   1.4071458e-01  -1.1141955e-02  -9.9178715e-02  -3.6977837e-01   1.7536008e-01
  -3.6463248e-02   3.2005856e-02  -1.7627271e-01  -3.8608400e-02  -6.9444862e-02   3.4767386e-02   1.9117632e-01   4.5945673e-01  -9.2228942e-02  -6.8474977e-01   2.1861997e-02  -5.9004223e-01  -1.6375815e-01   1.1762209e-01   2.9153083e-01   7.2572576e-01   2.5730891e-01   2.7536007e-01  -3.5754087e-01   5.0327355e-01  -2.2324568e-01   5.7003483e-01  -5.7697908e-01  -4.7172011e-02   3.5549574e-01  -9.5898303e-01
   1.1846012e-04   7.9365802e-03   1.3399392e-02  -8.3195753e-03   1.9362098e-02  -1.1229765e-01   3.4762265e-02   4.6009857e-03   4.1157234e-02   4.0517633e-02  -3.4743468e-02   1.1831417e-01   1.7345457e-01   4.7517275e-02   1.2202751e-01  -6.0833349e-02   2.1038818e-01   1.9865350e-02  -6.4074140e-02   2.8092675e-03   5.5354529e-03   6.8237184e-02   1.5709798e-01  -3.4787816e-01   3.3441117e-03   1.2421755e-01
   3.1297850e-03   3.4626701e-03   1.7495529e-02  -2.5587280e-02   3.1913433e-02   6.6077029e-02   7.0698103e-02   6.2411679e-02   8.4534299e-02   1.9362797e-01   8.6003420e-02   1.2902421e-01   6.0367384e-02   3.9286902e-01   1.5755953e-01   3.6142255e-01   1.0430315e-01   7.4601748e-02  -2.0107859e-01  -1.3917117e-02  -3.8122294e-02  -1.9410578e-02   1.0950735e-01  -2.4073319e-01   2.2785667e-01   2.4974598e-01
   2.1156677e-03  -1.9543694e-03  -3.4846737e-02   1.6408904e-03  -1.9355151e-02   7.9131765e-02   7.1372356e-03   1.5472945e-02   6.1843098e-02   8.1634622e-02   2.8754490e-02  -3.3829780e-02  -3.8480618e-02  -1.5331171e-01  -1.6061782e-01   9.0417156e-02  -8.9217275e-02  -2.3575067e-02  -5.2887388e-02   2.6866637e-02  -5.9178674e-03  -3.1674855e-01   4.6504023e-02  -3.6032865e-02  -2.2723510e-02   4.3008840e-01
   8.1734062e-03   1.2664955e-02  -1.5144707e-02   1.7647308e-03  -2.5070496e-02  -1.6223398e-01  -5.2372390e-02  -1.3894508e-01  -1.0023137e-01  -1.1970564e-01  -3.0182418e-01  -8.7296694e-02   4.5677161e-01  -1.8327266e-01   1.3696625e-01  -2.8098027e-01   2.9650895e-01   2.7191280e-01   2.7291646e-01  -4.9470431e-01  -3.6031949e-01   1.9559734e-01  -1.4793040e-01   1.7996545e-01  -4.1744216e-01   4.4364132e-01
  -8.7141120e-03  -1.7122821e-02   2.0895650e-02   3.3367240e-03   2.7250537e-03  -5.6210202e-02   1.0270080e-01   1.3634611e-01  -8.5261832e-02  -1.9929427e-02  -2.5610444e-01   1.6395286e-01   2.0582176e-01   2.7673905e-02   1.2118357e-01   9.2240316e-02  -2.3147574e-01   4.6405297e-02  -5.2727548e-01  -1.2829221e-01   8.8312662e-02  -1.8637205e-01   3.9009658e-01  -3.5959733e-01   5.6903099e-02  -6.5116825e-02
  -1.6088774e-02   1.1582655e-02   1.0638624e-02  -1.2917839e-02  -4.6835421e-03   6.9077169e-02   1.4001706e-02   8.3904107e-02  -3.6669851e-01  -2.1331828e-02   2.5491373e-01   1.4048596e-01  -2.2232521e-01   2.2722862e-01  -2.5973414e-01  -5.2299847e-01  -2.3694066e-02  -2.7419915e-01  -8.8235633e-02  -8.1815505e-01   2.1104551e-01   7.1011028e-01  -6.0503452e-02   6.9910038e-01   2.3663673e-01   2.8438378e-01
  -9.1256248e-03   5.5167658e-03  -1.9917091e-02   7.2713313e-02  -7.5353120e-02   5.1126813e-02  -1.3809141e-02  -2.5862272e-02  -2.6866525e-01  -7.5367862e-02  -1.3381929e-01   6.8088283e-03  -4.5428409e-02   8.1885347e-02   2.5355745e-01   1.1093847e-01  -1.1423466e-01   3.7162567e-01   1.4910671e-03  -1.4151248e-01   7.4152989e-03   1.1098080e-01  -1.4817762e-01  -3.4653765e-01   3.0718272e-01   9.2554294e-01
  -9.1679635e-02  -1.5776266e-02   6.9663892e-02  -9.3379066e-02  -1.5979491e-01  -9.6874101e-03  -7.4813093e-02  -3.1689307e-02  -5.8101073e-02   3.2459218e-01  -1.5747609e-02  -4.1178861e-02   7.3164834e-02  -1.1448127e-01  -1.7763924e-01  -1.8651467e-01   1.4661188e-01  -5.7142328e-01   1.5076116e-01  -2.2969748e-02  -1.4085617e-01   4.6927447e-01   3.5885801e-01  -1.2188170e-01   1.3691773e-01   6.5423102e-01
   1.4038558e-02   7.7275834e-03  -1.3154324e-02  -4.6867271e-02   5.8752234e-02  -3.8788362e-02  -2.1399440e-02   1.0375612e-01  -2.1708420e-02   4.9395118e-02   3.9560920e-02  -9.9813546e-02  -3.5882617e-02   1.4515249e-01   2.7628456e-03  -8.6963861e-02  -1.5415524e-01   1.4402851e-01   3.3529587e-01  -1.1673453e-01  -3.7852804e-02   2.4670510e-01   4.3660546e-02  -2.7857848e-01   1.2931987e-03   5.8172653e-01
  -2.5705553e-02   2.7722779e-02  -1.3369975e-01  -2.0590466e-02  -5.8969072e-02   3.8788096e-02   9.2280653e-02   4.0630073e-01   2.2457299e-02  -6.2651902e-01   4.2031211e-02  -4.6630433e-01  -2.3334518e-01   9.8585952e-02   3.0203088e-01   4.3189553e-01   2.3507361e-01   5.0867174e-01  -2.2501415e-01  -8.0991031e-03  -4.1322904e-01   1.1035958e-01  -6.4496317e-01  -2.3110747e-01   1.9932074e-01  -1.4559325e-01
   1.0268455e-02  -8.1613115e-03   1.2196328e-02  -1.2570213e-02  -8.7850884e-03  -4.3085026e-02   4.7359783e-02  -7.0714466e-02  -9.5128066e-03   3.6784574e-02  -7.7463189e-02   8.6403732e-03   1.2292628e-01   5.7051918e-02  -3.5140761e-02   7.9891134e-02   1.3596765e-01   2.0482806e-02  -6.9835312e-02  -1.7065204e-01  -7.5084766e-02  -8.6818791e-02   4.3006450e-01  -2.5925257e-01   2.9675315e-01   2.6666627e-01
  -2.5602323e-03  -5.7144020e-03   2.1135081e-03  -1.2531405e-02   1.2364505e-02   5.9643265e-02   5.7011608e-02   7.3517391e-02   3.3372785e-02   1.3203003e-01   5.7969068e-02   1.1489277e-01  -3.2107006e-03   1.5082031e-01   1.5410228e-01   2.2823653e-01  -4.7565020e-02   7.7807364e-02  -1.3760632e-01   1.1274104e-01   2.0724668e-01   1.8745009e-01   5.0121142e-03  -4.0343403e-02   1.5047626e-01   1.7674679e-01
   4.4765695e-03  -3.3073387e-03  -4.1442516e-03  -4.8016192e-03  -4.0912623e-03   5.2850051e-02   2.2785615e-02  -3.5347862e-02   8.1211625e-02   7.0100953e-02   6.3124647e-02  -2.3392940e-02  -1.7116830e-02  -1.7603921e-02  -6.0292259e-02   8.7359183e-02   6.4307829e-02   9.8334902e-02  -2.3628625e-01  -2.6230090e-01   2.0139911e-01  -2.6507191e-01   2.2619582e-01   9.1022518e-02  -4.0268824e-02   1.9261980e-01
   4.1144527e-03   1.1807648e-02  -1.9400877e-02   7.3584066e-03  -1.7254922e-02  -1.1292486e-01  -5.8254910e-02  -1.0331967e-01  -3.1900919e-02  -9.9592081e-02  -1.6924387e-01  -9.1207605e-02   2.5943494e-01  -2.1695430e-01   5.2369413e-02  -2.3558100e-01   2.3179293e-01   1.7534535e-01   2.7020974e-01  -2.1800382e-01  -2.4266273e-01   1.8869871e-01  -2.3617993e-01   1.2519856e-01  -4.0972547e-01   2.5178227e-01
  -1.1258265e-02  -1.1704506e-02   1.7537432e-02  -2.0105199e-04   8.4274950e-03  -9.8379970e-03   8.9983112e-02   1.3275241e-01  -9.6734151e-02   1.4082785e-02  -9.2387224e-02   1.8303700e-01   6.0166996e-02   5.7078770e-02   4.9176544e-02  -1.6975185e-02  -2.0534232e-01  -5.3846837e-02  -4.3469249e-01  -1.4915820e-01   1.7566779e-01  -2.2432285e-02   2.8497827e-01  -1.8057619e-01   1.3139864e-01  -6.8634538e-02
  -1.1630722e-02   1.4703936e-03   1.1017039e-02  -7.1179846e-03  -5.7133650e-03   4.9968178e-02   2.7329705e-02   7.6632153e-02  -2.7747666e-01  -2.4275408e-02   1.3270912e-01   1.1418868e-01  -1.2824164e-01   1.6013530e-01  -1.4275754e-01  -3.1169595e-01  -1.3087803e-01  -2.0379421e-01  -1.2957857e-01  -6.0459186e-01   1.5772928e-01   4.3191095e-01   1.0153243e-01   4.0457250e-01   2.2482253e-01   2.0460607e-01
   4.2815493e-03   7.6984492e-03  -4.7619987e-02   5.3324731e-02  -1.0211635e-02   3.3737940e-02  -1.5126576e-02   2.4185101e-02  -2.7688761e-01   2.4804075e-02  -2.4479983e-01   3.0101456e-03  -1.6227809e-01   9.8752977e-02   2.5772748e-01   1.6076221e-01  -2.4900924e-01   3.6639890e-01   2.2177058e-01  -1.1510703e-01   1.0875915e-01   4.9779507e-01   1.3014075e-01  -4.7381156e-01   2.7860544e-01   8.7320884e-01
  -6.3941586e-02  -7.6372713e-03   4.3459781e-02  -5.6778905e-02  -9.4920949e-02  -2.1016604e-02  -6.6284713e-02  -5.5351623e-02  -7.6143946e-02   2.8682355e-01  -5.2409771e-02   1.2666805e-01  -3.4032302e-02   1.1163451e-01   1.4203031e-02  -2.6478757e-01  -5.3813102e-02  -1.9654432e-01   3.1818423e-01  -1.9170373e-01  -1.1396864e-01   1.3228273e-01  -3.0473713e-02  -1.3856805e-01   1.4683288e-01   7.1837083e-01
   9.5627505e-03  -6.3448084e-03  -1.2621148e-02  -2.4058057e-02   5.6140914e-02  -3.0437074e-02  -7.1746973e-03   8.8687048e-02  -1.9191434e-01   7.4691486e-02  -1.1331641e-02  -1.3419623e-01  -1.9618718e-02   6.5816164e-02  -3.7077641e-02  -1.4549559e-02  -9.4729958e-03   2.4358567e-01   2.9927115e-01  -4.0937889e-02  -4.8582121e-02   2.5976896e-01   8.0370484e-02  -3.5203817e-01   2.4452181e-01   7.1317513e-01
  -1.7935929e-02   2.5370106e-02  -9.5846729e-02  -8.8807102e-03  -5.1254077e-02   3.9743190e-02   1.6794761e-02   3.5210937e-01   1.1632046e-01  -5.6413260e-01   5.8916986e-02  -3.5495715e-01  -2.7589382e-01   7.4507956e-02   2.9244336e-01   2.1050699e-01   2.0746597e-01   6.3453107e-01  -1.3037794e-01  -3.8636625e-01  -5.1868914e-01  -2.3798785e-01  -6.4372297e-01  -3.3793613e-01   5.8700658e-02   4.2586510e-01
   1.5843737e-02  -1.8744588e-02   1.2330597e-02  -1.3045435e-02  -2.6480893e-02   7.6858243e-03   5.7845426e-02  -1.0901774e-01  -3.5928172e-02   3.5568204e-02  -9.8259400e-02  -5.7991635e-02   8.1876243e-02   5.3470825e-02  -1.3184194e-01   1.6028113e-01   7.2144991e-02   1.1497003e-02  -7.4411434e-02  -2.6161333e-01  -1.0743020e-01  -1.9556216e-01   5.8166895e-01  -1.7213383e-01   4.9986279e-01   3.1593837e-01
  -6.1243659e-03  -1.1602201e-02  -1.0958202e-02  -4.8693912e-03  -5.6831895e-03   4.9458695e-02   4.6609001e-02   7.7757230e-02  -3.5393046e-03   8.2955220e-02   4.5018661e-02   1.0150649e-01  -4.9926672e-02  -2.5983534e-02   1.4787668e-01   1.1896774e-01  -1.3932837e-01   7.7412388e-02  -8.9594958e-02   1.8732371e-01   3.7039574e-01   3.1500522e-01  -6.4350817e-02   1.2723899e-01   9.3872672e-02   1.4066613e-01
   5.8571922e-03  -3.0595606e-03   1.2928397e-02  -1.0236361e-02   5.7008318e-03   3.3912398e-02   3.2580706e-02  -6.4834793e-02   9.6145526e-02   7.0647304e-02   6.3278371e-02  -4.9133375e-03   1.5858134e-03   6.5657507e-02  -7.6588822e-03   9.6940497e-02   1.6476715e-01   1.5893216e-01  -3.3556837e-01  -4.1169529e-01   3.0964415e-01  -2.0849561e-01   2.8713200e-01   1.6187391e-01  -5.4395837e-02   2.2514198e-02
  -4.5799162e-04   6.0452668e-03  -2.0261084e-02   1.3266331e-02  -8.8904949e-03  -4.2596986e-02  -5.1153754e-02  -4.5684467e-02   2.8418724e-02  -6.0008690e-02  -3.5790435e-02  -7.1115693e-02   2.9562358e-02  -2.2301085e-01  -3.7636080e-02  -1.3461443e-01   7.7362073e-02   4.4497212e-02   2.0940459e-01   9.7861645e-02  -8.7884749e-02   1.2518865e-01  -2.6670697e-01   4.4395064e-02  -3.0124121e-01   3.4008280e-02
  -1.0250662e-02  -2.4190036e-03   8.3893377e-03  -4.5149161e-03   1.3718429e-02   2.0139503e-02   5.4444802e-02   9.5824882e-02  -6.4210242e-02   3.7244242e-02   5.0834661e-02   1.5531949e-01  -5.7885298e-02   6.4113058e-02  -1.6899771e-04  -9.7784747e-02  -1.0595476e-01  -1.1272921e-01  -2.3112640e-01  -1.1359327e-01   2.0610650e-01   1.1006870e-01   1.2424001e-01  -1.6486340e-02   1.4069841e-01  -4.6925580e-02
  -4.3784469e-03  -7.1476869e-03   7.3098874e-03  -6.8778632e-04  -4.4026576e-03   2.4776004e-02   2.9668736e-02   4.5605532e-02  -1.1685978e-01  -1.6580843e-02   1.9660165e-03   5.8355392e-02  -2.6993921e-02   5.3940533e-02  -8.8810140e-03  -4.3563516e-02  -1.8277412e-01  -1.0120227e-01  -1.1666629e-01  -2.5453736e-01   7.4494006e-02   8.6647708e-02   2.0606818e-01   6.9068712e-02   1.6027675e-01   7.6587568e-02
   1.2514253e-02   8.6121591e-03  -5.8210830e-02   3.7092567e-02   3.1532791e-02   2.3605014e-02  -5.9662943e-03   4.3785253e-02  -2.3857978e-01   9.3934063e-02  -2.9228585e-01   6.3453829e-03  -2.1501238e-01   8.8504211e-02   2.0785672e-01   1.9198796e-01  -3.0081744e-01   2.8405809e-01   3.3906059e-01  -6.7653015e-02   1.9183616e-01   7.1699783e-01   3.3836128e-01  -4.6798026e-01   1.9730103e-01   6.1846840e-01
  -4.1350116e-02  -1.2152299e-03   2.8337497e-02  -2.5504612e-02  -4.3211229e-02  -2.6610999e-02  -5.2634747e-02  -7.8991987e-02  -6.8138799e-02   2.4226110e-01  -5.8844123e-02   2.4454882e-01  -1.0101884e-01   2.7158143e-01   1.3567142e-01  -3.1348268e-01  -1.8203546e-01   7.7067875e-02   3.9998420e-01  -3.1672890e-01  -9.2393162e-02  -1.7530990e-01  -3.4632488e-01  -1.1079098e-01   1.2778166e-01   6.4218368e-01
   6.2682579e-03  -1.4550296e-02  -7.1383431e-03  -7.6175521e-03   4.8697043e-02  -2.1862697e-02   8.3069500e-03   6.7239866e-02  -2.7098216e-01   8.7172699e-02  -2.8696337e-02  -1.4231057e-01  -9.0529123e-04  -4.5973053e-03  -6.9337457e-02   3.0545582e-02   9.4788763e-02   2.7757758e-01   2.2492404e-01   3.5284142e-02  -4.5948515e-02   2.1752291e-01   9.9501424e-02  -3.4245053e-01   3.8292616e-01   6.6436892e-01
  -1.2812404e-02   2.4363330e-02  -6.3425264e-02  -2.8621360e-03  -4.6211751e-02   3.7787406e-02  -3.7409534e-02   2.9842864e-01   1.8759180e-01  -4.9944262e-01   7.2647466e-02  -2.5668255e-01  -2.9595499e-01   4.8093188e-02   2.6753184e-01   5.3703364e-02   1.7110944e-01   6.6626863e-01  -6.4838386e-02  -6.3967870e-01  -5.5195812e-01  -4.8329150e-01  -5.8670647e-01  -3.8144901e-01  -6.1276486e-02   7.9051714e-01
   1.7821464e-02  -2.4591660e-02   1.3318613e-02  -1.0726126e-02  -3.5880627e-02   4.1399681e-02   6.4730231e-02  -1.1951371e-01  -4.2927110e-02   3.6398538e-02  -1.0090380e-01  -9.0017402e-02   4.9499647e-02   4.2811437e-02  -1.7869827e-01   1.9402137e-01   1.9794767e-02  -4.6902084e-03  -7.6172117e-02  -2.8478325e-01  -1.0639262e-01  -2.6071544e-01   6.3416678e-01  -8.8024343e-02   6.2302806e-01   3.0037624e-01
  -7.8530632e-03  -1.4528792e-02  -2.1837632e-02  -1.7327233e-03  -2.1421656e-02   3.6809054e-02   3.8865819e-02   7.6646134e-02  -2.5996034e-02   4.5276950e-02   4.3612720e-02   8.8511874e-02  -8.1748269e-02  -1.4557364e-01   1.3847223e-01   3.3947585e-02  -1.8130645e-01   7.2925670e-02  -5.3533467e-02   2.2152752e-01   4.5903490e-01   3.7441933e-01  -1.0783019e-01   2.5748476e-01   5.0406030e-02   1.2764155e-01
   6.3518463e-03  -1.7465586e-03   1.9065401e-02  -1.4275329e-02   1.0750098e-02   2.2857909e-02   3.7368060e-02  -7.5977780e-02   1.0636532e-01   8.0054095e-02   4.2572957e-02   1.6933808e-02   1.4165446e-02   1.0456557e-01   6.1210743e-03   1.1684560e-01   2.1748855e-01   1.7048615e-01  -3.6719685e-01  -4.4841134e-01   3.4275083e-01  -1.5300477e-01   2.6089491e-01   1.8829694e-01  -6.2111218e-02  -8.6525596e-02
  -3.7450827e-03  -9.6682986e-04  -1.8563258e-02   1.7478382e-02  -3.0425452e-03   1.9272105e-02  -3.7825276e-02   6.4888929e-03   6.1542701e-02  -2.0090659e-02   5.3234602e-02  -4.3031006e-02  -1.4689304e-01  -2.0881739e-01  -1.0578104e-01  -3.1370400e-02  -8.6524524e-02  -6.8076210e-02   1.3101992e-01   3.2912018e-01   3.8639038e-02   4.3658597e-02  -2.4849679e-01  -2.4064939e-02  -1.5593336e-01  -1.2796516e-01
  -6.7295276e-03   6.1192194e-03  -1.4123589e-03  -7.6315647e-03   1.7067227e-02   2.6880974e-02   1.5212915e-02   4.5897537e-02  -9.3380260e-03   4.5876603e-02   1.2674974e-01   1.0398395e-01  -1.1181098e-01   5.1713788e-02  -1.4599876e-02  -1.2551172e-01   1.2721421e-02  -1.1700330e-01  -1.7277267e-02  -5.0275241e-02   1.8497199e-01   1.6532782e-01  -1.3961535e-02   7.6403683e-02   1.0059900e-01  -1.8628988e-02
   2.5770380e-03  -1.1660196e-02   1.6934326e-03   4.1194437e-03  -1.9452858e-03   3.2193067e-03   2.2776862e-02   6.8153610e-03   4.1826890e-02  -4.0152489e-03  -9.0930832e-02  -1.2046519e-03   4.4925445e-02  -4.5306646e-02   9.0519510e-02   1.7367919e-01  -1.7702162e-01  -1.1636064e-02  -6.2896015e-02   7.4702250e-02  -5.7631307e-03  -1.9064780e-01   2.3055490e-01  -1.8018724e-01   7.6084770e-02  -4.2036826e-02
   1.5948549e-02   8.4015219e-03  -5.7566245e-02   2.3282986e-02   5.2187034e-02   1.8193378e-02   6.9345005e-03   4.4475863e-02  -1.7489196e-01   1.3240647e-01  -2.9186418e-01   8.4205361e-03  -2.2192181e-01   6.0234058e-02   1.2743525e-01   2.0414469e-01  -2.9180844e-01   1.5452134e-01   3.7755312e-01  -8.0138163e-03   2.4395976e-01   8.1408798e-01   4.8123297e-01  -3.8089880e-01   8.8570300e-02   2.8333827e-01
  -2.3813517e-02   3.3899979e-03   2.0926989e-02   3.6898062e-05  -4.2087223e-03  -2.7866879e-02  -3.7593063e-02  -9.9132964e-02  -4.4967635e-02   1.9299217e-01  -4.4260425e-02   3.1631180e-01  -1.3637201e-01   3.7243504e-01   2.0422110e-01  -3.3762467e-01  -2.5320852e-01   2.6426027e-01   4.1370393e-01  -3.9955171e-01  -7.8705105e-02  -4.3765482e-01  -5.8822595e-01  -6.5259151e-02   8.8875265e-02   4.9238272e-01
   3.6747998e-03  -1.8147493e-02   5.5729769e-04   2.7724853e-03   3.7191452e-02  -1.3679671e-02   2.2113642e-02   4.4901472e-02  -2.8322769e-01   8.7862806e-02  -1.9978165e-02  -1.3317471e-01   1.3069827e-02  -6.1107070e-02  -9.3135740e-02   5.3533727e-02   1.6163103e-01   2.6132451e-01   1.2569304e-01   1.0463009e-01  -3.7871410e-02   1.5132630e-01   1.0187791e-01  -2.7549894e-01   4.4146141e-01   5.1950568e-01
  -9.8993305e-03   2.4179038e-02  -3.6836202e-02  -1.6261126e-03  -4.3442871e-02   3.3253212e-02  -7.2882272e-02   2.4654500e-01   2.3557587e-01  -4.3394697e-01   8.2958943e-02  -1.7170110e-01  -2.9799452e-01   2.2011560e-02   2.3241766e-01  -4.7830791e-02   1.2418184e-01   6.2077034e-01  -1.9763082e-02  -7.8058741e-01  -5.2628216e-01  -6.3686724e-01  -4.8878355e-01  -3.7572563e-01  -1.5669045e-01   9.8529189e-01
   1.7175314e-02  -2.6608872e-02   1.4699474e-02  -6.4991506e-03  -3.9134270e-02   5.9869729e-02   6.7155197e-02  -1.1054376e-01  -3.6097519e-02   3.8687105e-02  -9.0160417e-02  -9.5857373e-02   2.5567418e-02   2.9959467e-02  -1.8643161e-01   1.9468945e-01  -2.1352649e-02  -2.4280309e-02  -7.4292312e-02  -2.5735598e-01  -8.6374152e-02  -2.8748970e-01   6.1097998e-01  -8.6721757e-03   6.7713817e-01   2.4557651e-01
  -8.0817977e-03  -1.5055672e-02  -3.0633920e-02  -2.0870781e-03  -3.4243452e-02   2.3306070e-02   3.3468234e-02   7.2192036e-02  -3.4281026e-02   1.7867949e-02   5.0045119e-02   7.5764041e-02  -1.0154394e-01  -2.1716682e-01   1.2536774e-01  -2.5975735e-02  -1.8616339e-01   6.3772243e-02  -2.7379466e-02   2.2919085e-01   4.8404623e-01   3.7637490e-01  -1.3220586e-01   3.4624820e-01   1.5016965e-02   1.2356405e-01
   6.1115074e-03   1.3305458e-04   1.7074594e-02  -1.6730790e-02   1.1923495e-02   1.9256289e-02   3.8066734e-02  -7.2507769e-02   1.1204076e-01   9.4832579e-02   1.2058368e-02   3.8009003e-02   1.9231656e-02   1.0782371e-01  -8.3430685e-03   1.4437697e-01   2.3001790e-01   1.4642022e-01  -3.4917975e-01  -4.0220087e-01   3.2375972e-01  -1.0279809e-01   1.7821196e-01   1.8242949e-01  -6.1644216e-02  -1.4179785e-01
  -5.1985046e-03  -6.5844947e-03  -1.5255752e-02   1.9204116e-02  -4.8648380e-04   5.9290762e-02  -2.3568063e-02   3.9588700e-02   6.2513330e-02   9.6346389e-03   8.8415382e-02  -1.7236882e-02  -2.3796808e-01  -1.8224284e-01  -1.4460981e-01   3.9095099e-02  -2.1012195e-01  -1.4026820e-01   6.2966454e-02   4.2463439e-01   1.0906377e-01  -2.3619359e-02  -2.0199205e-01  -5.6441037e-02  -1.9771714e-02  -2.0322935e-01
  -2.2196420e-03   1.1644951e-02  -8.8247524e-03  -8.8378970e-03   1.8130635e-02   1.4637963e-02  -1.5977065e-02  -7.1755269e-04   4.9736831e-02   4.2395920e-02   1.3347352e-01   4.8859286e-02  -1.0526127e-01   2.7856470e-02  -1.8451238e-03  -1.0391346e-01   1.1648130e-01  -7.9318984e-02   1.4602091e-01   2.0035222e-02   1.3343555e-01   1.4391161e-01  -9.6783473e-02   9.2161939e-02   3.3446593e-02   7.3518748e-04
   7.4790057e-03  -1.1653993e-02  -3.9327249e-03   6.4509616e-03   3.9413574e-04  -1.1444086e-02   1.0371778e-02  -2.8182714e-02   1.5530209e-01   6.9454966e-03  -1.3268889e-01  -4.9407264e-02   7.7368122e-02  -1.1129565e-01   1.3566635e-01   2.9204562e-01  -1.2618221e-01   4.5099836e-02   1.0623215e-02   2.9523430e-01  -6.5253426e-02  -3.4167291e-01   1.8547635e-01  -2.9510531e-01  -5.3258186e-03  -1.1781710e-01
   1.5509638e-02   7.3854494e-03  -5.0705424e-02   1.1660638e-02   5.5844895e-02   1.5228100e-02   1.8511030e-02   3.5239982e-02  -1.0379877e-01   1.4433742e-01  -2.6087941e-01   5.6780859e-03  -1.9856298e-01   2.2921215e-02   3.8171743e-02   1.9924309e-01  -2.4470572e-01   9.3384611e-03   3.6439400e-01   5.4247432e-02   2.6016482e-01   8.2632381e-01   5.6542610e-01  -2.5949043e-01  -2.3596093e-02  -4.0859136e-02
  -1.0837054e-02   6.2140887e-03   1.8178549e-02   1.9921988e-02   2.3626236e-02  -2.6147634e-02  -2.4052670e-02  -1.1350112e-01  -1.6331162e-02   1.4274647e-01  -1.9016808e-02   3.4843818e-01  -1.4769218e-01   4.2261242e-01   2.3700682e-01  -3.4108930e-01  -2.8295042e-01   3.8402921e-01   3.7959909e-01  -4.4368747e-01  -7.2713701e-02  -6.4469582e-01  -7.5780645e-01  -2.4919256e-02   4.0077558e-02   3.2077898e-01
   1.5912699e-03  -1.8256715e-02   8.2406772e-03   7.9057395e-03   2.3198550e-02  -6.3923697e-03   3.2066909e-02   2.5323213e-02  -2.5115043e-01   7.9310351e-02   5.6427192e-03  -1.1354019e-01   1.7801133e-02  -1.0018376e-01  -1.0720847e-01   6.0088143e-02   1.9448705e-01   2.1313460e-01   1.7265194e-02   1.6021454e-01  -2.9600428e-02   8.4296105e-02   8.9283823e-02  -1.7644253e-01   4.4447604e-01   3.4546051e-01
  -8.7052316e-03   2.4365303e-02  -1.6133808e-02  -4.0689180e-03  -4.2318971e-02   2.6632902e-02  -9.2366353e-02   1.9738514e-01   2.6074503e-01  -3.6874681e-01   8.9484632e-02  -9.9750845e-02  -2.8617342e-01  -1.3634326e-03   1.9201393e-01  -1.0435601e-01   6.6645419e-02   5.1690303e-01   1.2526456e-02  -8.2517252e-01  -4.5505080e-01  -7.1239542e-01  -3.6508116e-01  -3.3385789e-01  -2.2522773e-01   1.0463207e+00
   1.4804503e-02  -2.5734331e-02   1.6053619e-02  -1.1626218e-03  -3.8243013e-02   6.5306428e-02   6.4867397e-02  -8.9272996e-02  -2.1246523e-02   4.1754752e-02  -7.0915036e-02  -8.3454598e-02   9.9236266e-03   1.8469370e-02  -1.6546927e-01   1.7465092e-01  -5.2453645e-02  -4.3132682e-02  -6.8606138e-02  -1.9775927e-01  -6.0192952e-02  -2.8247460e-01   5.3498411e-01   6.4109150e-02   6.7325082e-01   1.7341762e-01
  -7.1599420e-03  -1.3847400e-02  -3.7453926e-02  -4.8413679e-03  -4.3771710e-02   1.0609339e-02   3.0264628e-02   6.6430662e-02  -2.9636232e-02  -4.1908007e-04   6.0747716e-02   6.3282605e-02  -1.1239243e-01  -2.5047265e-01   1.0796500e-01  -6.0930609e-02  -1.6695203e-01   4.9516254e-02  -9.5980444e-03   2.2337537e-01   4.5825981e-01   3.3212174e-01  -1.4257818e-01   3.9180109e-01  -1.5111922e-02   1.1624400e-01
   5.3298280e-03   2.1524679e-03   9.6605479e-03  -1.7602742e-02   1.0164231e-02   2.1864921e-02   3.5648318e-02  -5.8524122e-02   1.1373868e-01   1.1154360e-01  -1.9920790e-02   5.4966488e-02   1.7112141e-02   8.4231858e-02  -4.0094230e-02   1.7662316e-01   2.1130839e-01   1.0018253e-01  -2.9939507e-01  -3.0289076e-01   2.7321149e-01  -6.0454027e-02   6.7146253e-02   1.5560236e-01  -5.2716769e-02  -1.5161619e-01
  -5.0604115e-03  -9.4851724e-03  -1.1228891e-02   1.8619399e-02  -6.8775797e-04   7.5402379e-02  -1.1815648e-02   5.0865222e-02   3.7047460e-02   2.5247431e-02   8.0104350e-02   6.5081276e-04  -2.4781456e-01  -1.5079981e-01  -1.5795512e-01   6.3350336e-02  -2.7278620e-01  -1.7035782e-01   1.9011797e-02   3.9017950e-01   1.2233774e-01  -5.9222246e-02  -1.4781358e-01  -4.7341177e-02   8.0109613e-02  -1.9718395e-01
   1.8621926e-03   1.3684363e-02  -1.2672528e-02  -8.3683208e-03   1.7240596e-02  -7.5666966e-03  -3.4040788e-02  -3.3757873e-02   9.9801282e-02   3.1634045e-02   9.2665999e-02   3.7898052e-03  -6.1237801e-02   1.7870670e-03   2.2868643e-02  -5.2227792e-02   1.8836534e-01  -2.3383178e-02   2.3331745e-01   8.2077273e-02   7.5237844e-02   7.2642080e-02  -1.2183831e-01   5.2770817e-02  -3.7988651e-02   4.8027445e-03
   9.6823393e-03  -8.1784126e-03  -8.1991284e-03   6.4801301e-03   1.7602783e-03  -1.9414800e-02  -3.2472767e-03  -5.2284392e-02   2.0711432e-01   1.1773451e-02  -1.3033932e-01  -7.9584838e-02   7.5418256e-02  -1.3498230e-01   1.2902212e-01   3.0871330e-01  -5.1028639e-02   6.6643159e-02   8.1913621e-02   3.7997742e-01  -9.6658263e-02  -3.6459907e-01   9.8786258e-02  -2.8397171e-01  -7.0237084e-02  -1.4091088e-01
   1.2446885e-02   5.9249700e-03  -4.1419689e-02   2.3340261e-03   4.7614416e-02   1.2968001e-02   2.5772074e-02   2.2350064e-02  -3.8772885e-02   1.3643026e-01  -2.1558256e-01  -1.6273901e-03  -1.5729511e-01  -1.5677794e-02  -4.2372664e-02   1.8095068e-01  -1.8006498e-01  -1.2335233e-01   3.2537891e-01   1.1039786e-01   2.4274145e-01   7.8217665e-01   5.9924538e-01  -1.3971044e-01  -1.1971312e-01  -2.9804636e-01
  -1.6517470e-03   7.3738391e-03   1.7629157e-02   3.4606020e-02   4.2517448e-02  -2.2584511e-02  -1.3787460e-02  -1.2107620e-01   1.0171931e-02   9.6199940e-02   7.2108075e-03   3.4928304e-01  -1.4140913e-01   4.3109524e-01   2.4906751e-01  -3.2697956e-01  -2.8561702e-01   4.5613004e-01   3.1773103e-01  -4.5393835e-01  -7.1553928e-02  -7.9221443e-01  -8.5868810e-01  -5.4524764e-03  -9.6152005e-03   1.6099325e-01
   4.0339504e-05  -1.5888224e-02   1.4405978e-02   8.8954477e-03   8.7319387e-03  -4.1339120e-04   3.7042271e-02   1.0306985e-02  -1.9417042e-01   6.5020599e-02   3.8427268e-02  -8.8131782e-02   1.2031530e-02  -1.2034916e-01  -1.1054293e-01   5.6083978e-02   1.9783929e-01   1.5145706e-01  -8.5100397e-02   1.9638788e-01  -2.3697789e-02   3.0785785e-02   6.4736091e-02  -6.7160162e-02   4.1334477e-01   1.8824302e-01
  -8.7292647e-03   2.4549501e-02  -1.0351173e-03  -9.0029265e-03  -4.2098118e-02   1.8546747e-02  -9.8629935e-02   1.5149957e-01   2.6472664e-01  -3.0461294e-01   9.2061906e-02  -4.0167405e-02  -2.6423932e-01  -2.0156393e-02   1.5052380e-01  -1.2656927e-01   2.9927235e-04   3.7387936e-01   3.8109786e-02  -7.9193905e-01  -3.5122381e-01  -7.2501195e-01  -2.2993152e-01  -2.6703445e-01  -2.6648461e-01   1.0070954e+00
   1.1485625e-02  -2.2864039e-02   1.7027575e-02   4.5775840e-03  -3.4939245e-02   6.0215473e-02   5.8166524e-02  -6.1546437e-02  -3.8356721e-03   4.4860779e-02  -4.7650394e-02  -5.9911761e-02   2.2198362e-03   1.0497787e-02  -1.2543849e-01   1.4439801e-01  -7.5305645e-02  -5.7573936e-02  -5.9545340e-02  -1.2416798e-01  -3.8212594e-02  -2.5283625e-01   4.2715453e-01   1.2835212e-01   6.2244557e-01   1.0128034e-01
  -5.4262770e-03  -1.1562817e-02  -4.2407746e-02  -8.9378211e-03  -4.9873791e-02   1.8334208e-04   2.9139883e-02   6.1075894e-02  -1.4388515e-02  -1.0795673e-02   7.2553378e-02   5.1172595e-02  -1.1704130e-01  -2.5512901e-01   8.5701281e-02  -7.2932413e-02  -1.3555840e-01   3.0022604e-02   1.4871016e-03   2.1437538e-01   3.9525906e-01   2.5394943e-01  -1.4301932e-01   3.9600833e-01  -4.1155444e-02   9.6963402e-02
   4.2252148e-03   3.9818348e-03  -7.5487767e-04  -1.7055845e-02   6.4264282e-03   2.8863044e-02   3.1106369e-02  -3.8139727e-02   1.1229580e-01   1.2708709e-01  -4.7809123e-02   6.5428459e-02   9.3728211e-03   4.2275277e-02  -7.9103846e-02   2.1053244e-01   1.7094690e-01   4.4207927e-02  -2.3408595e-01  -1.7809980e-01   2.0811353e-01  -2.7111514e-02  -4.8379476e-02   1.1755194e-01  -3.6516353e-02  -1.2529669e-01
  -3.9419179e-03  -9.5820325e-03  -7.1984751e-03   1.6512542e-02  -2.5612858e-03   7.2237913e-02  -4.1288447e-03   4.4619094e-02  -3.0594573e-03   2.7447991e-02   4.5802798e-02   8.6689893e-03  -1.9986616e-01  -1.2092106e-01  -1.5414622e-01   4.6788044e-02  -2.7680434e-01  -1.6758837e-01   5.4103185e-04   2.6706145e-01   9.2994469e-02  -6.1899773e-02  -1.0036400e-01  -7.3598660e-03   1.3354700e-01  -1.3609706e-01
   4.5825033e-03   1.2904415e-02  -1.3177351e-02  -6.9787552e-03   1.5075525e-02  -3.0625969e-02  -3.8964242e-02  -4.9394298e-02   1.3324811e-01   1.8506957e-02   3.2510291e-02  -2.4032188e-02  -6.1503368e-03  -1.8983117e-02   4.5586720e-02   6.1445059e-03   2.2464305e-01   2.7646696e-02   2.4633921e-01   1.2508588e-01   2.8220198e-02  -1.3220363e-02  -1.0339985e-01  -1.0691109e-02  -9.5303094e-02  -3.8632718e-03
   9.3687950e-03  -2.9812436e-03  -1.0393477e-02   4.9539542e-03   1.8932091e-03  -2.2198735e-02  -1.4371062e-02  -6.2604146e-02   2.0134679e-01   9.0296166e-03  -1.0021095e-01  -9.1032352e-02   5.0765365e-02  -1.2043998e-01   8.6053305e-02   2.4891805e-01   2.6118076e-02   6.0413590e-02   1.3361908e-01   3.4623042e-01  -9.9690016e-02  -2.9170779e-01   2.5847068e-03  -1.8698989e-01  -1.1174833e-01  -1.1973069e-01
   8.0689848e-03   4.3258047e-03  -3.2166240e-02  -4.4537849e-03   3.2725891e-02   1.0361376e-02   2.7732856e-02   9.6505432e-03   1.1893214e-02   1.1635810e-01  -1.6869044e-01  -1.0984768e-02  -1.0753220e-01  -4.9720217e-02  -1.0251061e-01   1.5356302e-01  -1.1412231e-01  -2.2309539e-01   2.8120374e-01   1.5394363e-01   1.9945181e-01   7.0214958e-01   5.9210630e-01  -4.3387398e-02  -1.8709165e-01  -4.6521337e-01
   4.6240611e-03   7.0262826e-03   1.7525884e-02   4.4775971e-02   5.4883573e-02  -1.7949500e-02  -7.4430051e-03  -1.2190114e-01   2.9594046e-02   5.8002577e-02   2.7006812e-02   3.2798953e-01  -1.2288436e-01   4.0682224e-01   2.5193296e-01  -2.9809089e-01  -2.7293303e-01   4.9798551e-01   2.4531431e-01  -4.3561477e-01  -7.0519759e-02  -8.8105054e-01  -8.9636602e-01  -1.3522179e-02  -5.3584961e-02   2.9023444e-02
  -8.5560281e-04  -1.1955659e-02   1.8319335e-02   6.9857446e-03  -4.1846572e-03   3.9833245e-03   3.6982364e-02   9.3148344e-05  -1.2778320e-01   4.8684425e-02   6.9537474e-02  -6.0160594e-02  -2.5891150e-03  -1.2238434e-01  -1.0308858e-01   4.7056615e-02   1.7759978e-01   9.2041788e-02  -1.6891803e-01   2.0954030e-01  -2.0525809e-02  -2.7740919e-03   3.2337333e-02   3.5871021e-02   3.6473935e-01   7.3129078e-02
  -9.5066282e-03   2.4444905e-02   9.0284244e-03  -1.5267044e-02  -4.2047804e-02   9.6900765e-03  -9.4359913e-02   1.0911681e-01   2.5017407e-01  -2.4211886e-01   9.0947603e-02   7.9759644e-03  -2.3548934e-01  -3.3114555e-02   1.1109751e-01  -1.2509217e-01  -7.1400460e-02   2.0980754e-01   6.1080111e-02  -7.0059992e-01  -2.2695587e-01  -6.9028298e-01  -9.5993950e-02  -1.8414255e-01  -2.8205673e-01   8.9746171e-01
   7.8457281e-03  -1.8800555e-02   1.7359580e-02   1.0120461e-02  -3.0598839e-02   4.7272794e-02   4.7819658e-02  -3.1889319e-02   1.1540974e-02   4.7266607e-02  -2.4144545e-02  -3.1232298e-02   1.7717341e-03   6.8684279e-03  -7.4711321e-02   1.1225534e-01  -9.2108858e-02  -6.4955758e-02  -4.8075345e-02  -5.2948831e-02  -2.7715814e-02  -2.0575898e-01   3.0555127e-01   1.8185142e-01   5.3581117e-01   4.1511778e-02
  -3.1918575e-03  -8.7810862e-03  -4.5612581e-02  -1.3418232e-02  -5.2661425e-02  -6.8952487e-03   2.9931152e-02   5.7314164e-02   8.2402828e-03  -1.4592275e-02   8.2838196e-02   3.9531841e-02  -1.1753909e-01  -2.4026754e-01   5.8226257e-02  -6.6091514e-02  -1.0167957e-01   5.5765137e-03   7.9281218e-03   2.0879741e-01   3.0830995e-01   1.5498419e-01  -1.3695955e-01   3.6450140e-01  -6.3341247e-02   6.1303007e-02
   3.0201721e-03   5.4019029e-03  -1.2159648e-02  -1.5387499e-02   1.6147965e-03   3.8146634e-02   2.5427448e-02  -1.5157412e-02   1.0865347e-01   1.3894547e-01  -6.8611747e-02   6.8077938e-02  -1.7415131e-03  -1.0189922e-02  -1.1726652e-01   2.4294155e-01   1.1840566e-01  -1.0954678e-02  -1.6668562e-01  -5.1419661e-02   1.4150158e-01  -2.6677658e-03  -1.4963717e-01   7.6013548e-02  -1.5405987e-02  -7.3017819e-02
  -2.4994058e-03  -7.6580178e-03  -3.6628017e-03   1.3905901e-02  -4.9658886e-03   5.7249249e-02  -5.7341762e-04   2.8396560e-02  -4.4481082e-02   1.9779648e-02   2.1517549e-03   7.5828384e-03  -1.2343089e-01  -9.7412983e-02  -1.4157253e-01   6.7280068e-03  -2.3875914e-01  -1.4489637e-01   7.3672913e-04   1.1013310e-01   4.1353040e-02  -4.2368458e-02  -6.6103251e-02   4.3581825e-02   1.4340134e-01  -5.3298223e-02
   5.6199492e-03   1.0494367e-02  -1.1378711e-02  -5.5252702e-03   1.2447958e-02  -4.7991909e-02  -3.3864492e-02  -4.9173466e-02   1.4787840e-01   6.8926789e-03  -2.3162521e-02  -3.3252018e-02   3.9667909e-02  -3.0344631e-02   5.8045064e-02   5.1729694e-02   2.3010165e-01   5.8069745e-02   2.0407277e-01   1.4297539e-01   1.0538097e-03  -8.2969682e-02  -6.1599136e-02  -7.0693339e-02  -1.2717835e-01  -1.7655977e-02
   7.2434169e-03   2.1474576e-03  -1.0450107e-02   2.7716346e-03   1.0755145e-03  -2.1407831e-02  -2.0656831e-02  -5.9929556e-02   1.5486748e-01   1.9239500e-04  -5.9866250e-02  -8.6720449e-02   1.6120244e-02  -7.9997391e-02   2.7285128e-02   1.4965587e-01   8.6848864e-02   3.7411440e-02   1.5625243e-01   2.3600073e-01  -7.8897585e-02  -1.6891700e-01  -7.6323110e-02  -5.4627358e-02  -1.2827263e-01  -7.3175635e-02
   3.5037024e-03   2.7934884e-03  -2.4204468e-02  -8.5345146e-03   1.5723154e-02   7.0411000e-03   2.4982619e-02  -8.6471824e-04   4.4987167e-02   9.1110901e-02  -1.2794418e-01  -1.9292406e-02  -5.6401426e-02  -7.5485812e-02  -1.3712311e-01   1.2107463e-01  -5.7629614e-02  -2.7961081e-01   2.4506773e-01   1.8153386e-01   1.4089804e-01   6.0047680e-01   5.5381581e-01   2.1592575e-02  -2.2071558e-01  -5.4490930e-01
   8.8293068e-03   5.3496728e-03   1.6807732e-02   5.1197343e-02   6.2879119e-02  -1.2627713e-02  -4.7590755e-03  -1.1673664e-01   3.9728504e-02   3.1797181e-02   3.6181427e-02   2.9333241e-01  -9.6662977e-02   3.5830542e-01   2.5292580e-01  -2.5730163e-01  -2.5322411e-01   5.2256458e-01   1.7487114e-01  -3.9389982e-01  -6.4383414e-02  -9.1577243e-01  -8.7807839e-01  -4.7057395e-02  -8.8293670e-02  -7.3010601e-02
  -9.9115720e-04  -7.2678121e-03   1.9924680e-02   3.3645410e-03  -1.3914470e-02   6.7150536e-03   3.2677215e-02  -6.1437164e-03  -6.3232571e-02   3.3399276e-02   9.2318432e-02  -3.1934277e-02  -2.2465081e-02  -1.0912411e-01  -8.6273588e-02   3.7601070e-02   1.4107557e-01   4.5780569e-02  -2.2605061e-01   1.9865563e-01  -1.9123988e-02  -1.6080800e-02  -3.2049174e-03   1.2223630e-01   3.0984392e-01   7.9654754e-03
  -1.0644174e-02   2.3856137e-02   1.4828163e-02  -2.1821745e-02  -4.1548210e-02   7.6302476e-04  -8.2103355e-02   7.0244605e-02   2.2053301e-01  -1.8178522e-01   8.6877375e-02   4.5720233e-02  -2.0276803e-01  -3.9651999e-02   7.5698037e-02  -1.0995811e-01  -1.4376614e-01   4.0602683e-02   8.3478134e-02  -5.7086666e-01  -9.3368073e-02  -6.2319826e-01   2.6403401e-02  -9.1897882e-02  -2.7538056e-01   7.4331952e-01
   4.3537060e-03  -1.4222418e-02   1.6900275e-02   1.4988621e-02  -2.6195500e-02   2.9197262e-02   3.4945438e-02  -3.6173090e-03   2.1560054e-02   4.8334710e-02  -3.3147223e-03  -2.1714630e-03   7.4885153e-03   7.2678653e-03  -2.0109666e-02   8.4353976e-02  -1.0521758e-01  -6.3952692e-02  -3.5568179e-02   2.7407252e-03  -3.2575144e-02  -1.4807469e-01   1.8464782e-01   2.2226705e-01   4.2443939e-01   1.2216693e-03
  -7.3048532e-04  -5.9640266e-03  -4.7196204e-02  -1.7467870e-02  -5.2476745e-02  -1.0053489e-02   3.2386310e-02   5.5744307e-02   3.4544691e-02  -1.3297855e-02   8.9561823e-02   2.8370994e-02  -1.1509330e-01  -2.1417517e-01   2.5587710e-02  -4.6197694e-02  -7.2348481e-02  -2.3062314e-02   1.2012548e-02   2.0963426e-01   2.0951903e-01   4.8440974e-02  -1.2733151e-01   3.0597393e-01  -8.1553785e-02   9.2338445e-03
   1.9203855e-03   6.3034142e-03  -2.3020785e-02  -1.2989159e-02  -3.4661549e-03   4.7643355e-02   1.9563844e-02   7.2006790e-03   1.0369182e-01   1.4536245e-01  -8.1432385e-02   6.2668261e-02  -1.3856248e-02  -6.6168850e-02  -1.4901302e-01   2.7063106e-01   6.2350280e-02  -5.7274069e-02  -1.0708174e-01   5.8847675e-02   8.2515329e-02   1.3971531e-02  -2.2364809e-01   3.6626959e-02   7.5444994e-03  -5.5372256e-03
  -1.2317447e-03  -4.8780308e-03  -9.1467376e-04   1.1730856e-02  -6.9665233e-03   3.7908542e-02  -2.9757576e-04   9.8397424e-03  -7.5990909e-02   7.1146261e-03  -3.8884722e-02   2.4312524e-05  -4.4568698e-02  -8.3192167e-02  -1.2644652e-01  -3.5882252e-02  -1.8075183e-01  -1.1419912e-01   9.6363461e-03  -3.0692586e-02  -1.3817317e-02  -1.6413419e-02  -4.5058788e-02   8.4393644e-02   1.2043929e-01   2.1527741e-02
   5.1876561e-03   7.6650188e-03  -8.5761848e-03  -4.6425837e-03   1.0136748e-02  -5.6533278e-02  -2.3122265e-02  -3.8048413e-02   1.4586689e-01  -6.8203375e-04  -5.9878704e-02  -2.6699420e-02   6.5586183e-02  -3.1815715e-02   5.8387174e-02   7.3347853e-02   2.1356483e-01   6.2020139e-02   1.3293800e-01   1.3483996e-01  -6.0021551e-03  -1.1781301e-01  -1.5167517e-02  -1.0949799e-01  -1.3005919e-01  -2.8669935e-02
   4.2443947e-03   5.8381008e-03  -8.8243526e-03   6.7449059e-04  -7.0942323e-05  -1.8311844e-02  -2.1442196e-02  -4.7820923e-02   8.9677489e-02  -1.1374441e-02  -2.3190662e-02  -7.1397787e-02  -1.7801492e-02  -2.9448987e-02  -2.7795672e-02   4.6660248e-02   1.2012609e-01   7.9468305e-03   1.4900082e-01   9.7598808e-02  -4.2198134e-02  -3.9924187e-02  -1.2157402e-01   6.8425130e-02  -1.2236602e-01  -2.2764173e-02
  -4.6509954e-04   1.4395231e-03  -1.7899278e-02  -9.9721114e-03  -9.1325179e-05   3.1727773e-03   1.9056909e-02  -8.3692528e-03   6.1534067e-02   6.5732619e-02  -9.5946411e-02  -2.4221299e-02  -9.4569835e-03  -9.1159669e-02  -1.4716450e-01   8.6575097e-02  -1.5832683e-02  -2.9299539e-01   2.2205666e-01   1.9311167e-01   7.7724507e-02   4.8710838e-01   4.9375188e-01   5.8196224e-02  -2.2256877e-01  -5.5489670e-01
   1.1644848e-02   2.5458022e-03   1.4979755e-02   5.4590401e-02   6.8071099e-02  -6.6849605e-03  -4.9321554e-03  -1.0666995e-01   4.0754869e-02   1.9488134e-02   3.3943112e-02   2.5274937e-01  -6.6713341e-02   2.9345309e-01   2.5526991e-01  -2.0776859e-01  -2.3135330e-01   5.3761134e-01   1.1351951e-01  -3.3350490e-01  -4.8820094e-02  -9.0314991e-01  -8.1263780e-01  -9.7324030e-02  -1.1317630e-01  -1.5129920e-01
  -3.6427029e-04  -2.5025095e-03   1.9644797e-02  -9.8799425e-04  -1.9486963e-02   7.9023103e-03   2.5412008e-02  -9.7254785e-03  -7.7031186e-03   2.1081017e-02   1.0303546e-01  -5.3812183e-03  -4.3246290e-02  -8.4907047e-02  -6.3117040e-02   3.0924262e-02   9.6468802e-02   1.7708850e-02  -2.5328824e-01   1.6544038e-01  -1.8235020e-02  -1.2751193e-02  -3.7233562e-02   1.8686963e-01   2.5460724e-01  -1.1553828e-02
  -1.1840503e-02   2.2681969e-02   1.7240568e-02  -2.7817606e-02  -4.0156513e-02  -7.6047071e-03  -6.4237957e-02   3.4789485e-02   1.7973546e-01  -1.2418612e-01   8.0961159e-02   7.4109459e-02  -1.6847417e-01  -3.9823457e-02   4.5174724e-02  -9.0115126e-02  -2.1151165e-01  -1.2066210e-01   1.0554618e-01  -4.2134551e-01   3.9612417e-02  -5.3730523e-01   1.2967674e-01   4.6228282e-03  -2.5134234e-01   5.6676311e-01
   1.3260144e-03  -9.6713400e-03   1.5622981e-02   1.8847324e-02  -2.2303611e-02   8.6239700e-03   2.0871938e-02   2.0983097e-02   2.4392057e-02   4.7637780e-02   1.2836790e-02   2.3800649e-02   1.7864557e-02   1.0553025e-02   3.3177898e-02   6.4769613e-02  -1.1686121e-01  -5.4612308e-02  -2.3591155e-02   3.3984301e-02  -5.3267966e-02  -8.6026146e-02   7.5019877e-02   2.4747930e-01   2.9931407e-01  -1.7528831e-02
   1.7244721e-03  -3.4483399e-03  -4.7301929e-02  -2.0442403e-02  -4.9862385e-02  -9.2463590e-03   3.6152513e-02   5.6435127e-02   6.0835411e-02  -8.5593611e-03   9.1258633e-02   1.7570645e-02  -1.1016584e-01  -1.8400823e-01  -1.1628316e-02  -1.9887344e-02  -5.1916391e-02  -5.4691865e-02   1.5889068e-02   2.1707147e-01   1.0928052e-01  -5.3408950e-02  -1.1657213e-01   2.3089215e-01  -9.5714448e-02  -5.5458144e-02
   1.0962683e-03   6.6712834e-03  -3.2298256e-02  -1.0303072e-02  -8.1514851e-03   5.5597176e-02   1.4402600e-02   2.6489111e-02   9.8093410e-02   1.4543982e-01  -8.6893006e-02   4.9947787e-02  -2.4913206e-02  -1.1969384e-01  -1.7150005e-01   2.9046365e-01   1.0060304e-02  -8.9569446e-02  -6.1366300e-02   1.4036179e-01   3.6839666e-02   2.4565343e-02  -2.6320150e-01   3.0561047e-03   2.9096031e-02   6.6215558e-02
  -3.9545214e-04  -2.3348842e-03   9.2157775e-04   1.0610884e-02  -7.9343997e-03   2.0010550e-02  -2.1099406e-03  -5.4166110e-03  -9.0681516e-02  -5.5997673e-03  -7.0802952e-02  -1.0367974e-02   1.8820585e-02  -7.9316797e-02  -1.1223611e-01  -6.3707211e-02  -1.2323009e-01  -8.4044634e-02   1.8525486e-02  -1.2258905e-01  -5.9644896e-02   1.8534144e-03  -3.3770681e-02   9.9830183e-02   7.8218562e-02   6.9013350e-02
   3.8281016e-03   5.3124355e-03  -5.9000378e-03  -4.5772785e-03   8.7329165e-03  -5.6184612e-02  -1.0926068e-02  -2.2145710e-02   1.3212771e-01  -2.9668603e-03  -7.3044933e-02  -9.5073059e-03   7.0117037e-02  -2.5616740e-02   4.9468405e-02   6.9094875e-02   1.8443640e-01   4.2418630e-02   5.8560397e-02   1.0496885e-01   1.8483058e-03  -1.1302146e-01   2.2548199e-02  -1.2027336e-01  -1.0725911e-01  -3.2357224e-02
   1.2925120e-03   7.3831310e-03  -6.2857417e-03  -9.1228855e-04  -8.4691120e-04  -1.3823353e-02  -1.7591505e-02  -3.1390263e-02   2.6559308e-02  -2.1799084e-02   1.7460303e-03  -5.0198431e-02  -4.3538609e-02   1.6051314e-02  -6.4782098e-02  -3.4003735e-02   1.2334632e-01  -2.0639888e-02   1.1837306e-01  -2.8273154e-02   4.8041631e-04   6.3696699e-02  -1.2857392e-01   1.5252038e-01  -9.9635707e-02   1.3905230e-02
  -3.4552261e-03   3.2150148e-04  -1.3087100e-02  -9.1324372e-03  -1.2863112e-02  -7.8498688e-04   1.1801306e-02  -1.2597485e-02   6.5410245e-02   4.2741133e-02  -7.1193334e-02  -2.4984341e-02   2.8838583e-02  -9.6349643e-02  -1.3809698e-01   5.2061971e-02   1.0527296e-02  -2.7172789e-01   2.1026839e-01   1.9127635e-01   1.8350052e-02   3.6944170e-01   4.2008173e-01   7.5411264e-02  -1.9967339e-01  -5.1779029e-01
   1.3538434e-02  -1.1446146e-03   1.1933188e-02   5.5559468e-02   7.1313517e-02   3.3443108e-07  -7.0044550e-03  -9.2783318e-02   3.4552866e-02   2.0937183e-02   2.2311793e-02   2.1175019e-01  -3.6527780e-02   2.1952535e-01   2.5892710e-01  -1.5288283e-01  -2.0930190e-01   5.4622760e-01   6.3423078e-02  -2.5866681e-01  -2.1546666e-02  -8.5076912e-01  -7.1017576e-01  -1.5210401e-01  -1.2984218e-01  -2.1456279e-01
   8.8840984e-04   1.8259194e-03   1.8139545e-02  -5.3895387e-03  -2.0706280e-02   7.8257211e-03   1.6597446e-02  -1.1961644e-02   3.5066013e-02   1.2213637e-02   1.0090724e-01   1.7648685e-02  -6.0893550e-02  -5.4822806e-02  -3.7859163e-02   2.8683151e-02   5.1995815e-02   7.3196065e-03  -2.5195233e-01   1.1397403e-01  -1.7180913e-02   1.7846175e-03  -6.5794584e-02   2.2836110e-01   2.0088967e-01   3.8623191e-03
  -1.2889001e-02   2.0912981e-02   1.7152130e-02  -3.2631614e-02  -3.7625074e-02  -1.4917923e-02  -4.2953562e-02   2.6677756e-03   1.3186657e-01  -6.9987452e-02   7.4457483e-02   9.4141610e-02  -1.3456461e-01  -3.4245891e-02   1.9498702e-02  -7.2976648e-02  -2.6950584e-01  -2.6398771e-01   1.2623554e-01  -2.6860399e-01   1.6341845e-01  -4.4407159e-01   2.0915259e-01   1.0126176e-01  -2.1571828e-01   3.8635864e-01
  -1.0577574e-03  -5.5522541e-03   1.3620233e-02   2.1516922e-02  -1.9149246e-02  -1.2023522e-02   6.9811759e-03   4.0448951e-02   1.9713752e-02   4.5041276e-02   2.3203017e-02   4.4432761e-02   3.1036109e-02   1.5127204e-02   8.1471959e-02   5.5728102e-02  -1.2884478e-01  -3.8195891e-02  -1.3634577e-02   3.6597666e-02  -8.7255523e-02  -2.5107800e-02  -1.6607192e-02   2.5614125e-01   1.7103128e-01  -1.7088922e-02
   3.9796781e-03  -1.4571664e-03  -4.6095747e-02  -2.1883473e-02  -4.5513613e-02  -4.8968232e-03   4.0780480e-02   5.9054977e-02   8.3897742e-02  -2.1255340e-03   8.7022004e-02   6.8954737e-03  -1.0274672e-01  -1.5553533e-01  -5.2233526e-02   6.3520639e-03  -4.2356297e-02  -8.7775275e-02   2.1142778e-02   2.2963993e-01   1.5995441e-02  -1.4026821e-01  -1.0658736e-01   1.4996858e-01  -1.0591430e-01  -1.2624990e-01
   6.6914842e-04   6.5567825e-03  -3.9411555e-02  -7.7763984e-03  -1.1943040e-02   6.0777861e-02   1.0729089e-02   4.1147380e-02   9.2258286e-02   1.3913952e-01  -8.6545591e-02   3.1504343e-02  -3.3448705e-02  -1.6594405e-01  -1.8439912e-01   2.9962067e-01  -3.2989982e-02  -1.0551475e-01  -3.2053828e-02   1.8682152e-01   7.3337386e-03   3.1150057e-02  -2.6637128e-01  -2.2774533e-02   4.6334158e-02   1.3169326e-01
  -1.6895152e-05  -7.4414611e-04   1.8488702e-03   1.0772974e-02  -7.5600388e-03   6.9627062e-03  -4.9365491e-03  -1.4692324e-02  -8.6688474e-02  -1.4326003e-02  -9.1600464e-02  -1.9841556e-02   5.8306466e-02  -8.5191564e-02  -1.0015779e-01  -6.7555428e-02  -8.0307230e-02  -5.9129348e-02   2.2617002e-02  -1.5436354e-01  -9.0468922e-02   4.5501196e-03  -2.8154000e-02   8.4634025e-02   2.9105623e-02   8.2295900e-02
   2.1698970e-03   3.8635835e-03  -4.0696929e-03  -5.1837985e-03   8.5129461e-03  -4.8985842e-02  -4.0224282e-04  -6.8415475e-03   1.1247928e-01   1.8161136e-04  -6.5709829e-02   1.2540733e-02   5.8075531e-02  -1.5161764e-02   3.6180695e-02   4.4755905e-02   1.5065789e-01   7.9435493e-03   1.4936372e-04   6.1921354e-02   1.7340627e-02  -7.6012428e-02   4.4908094e-02  -1.0499047e-01  -6.7063463e-02  -2.9031403e-02
  -8.9853484e-04   6.7746820e-03  -3.6715766e-03  -1.8894336e-03  -7.1792205e-04  -8.6301385e-03  -1.0950751e-02  -1.5905371e-02  -1.9262513e-02  -2.7976170e-02   1.2698094e-02  -2.7768307e-02  -5.7115035e-02   4.5009064e-02  -7.6346078e-02  -7.9488290e-02   1.0112750e-01  -4.4507675e-02   7.5330281e-02  -1.1638548e-01   3.8846578e-02   1.2638257e-01  -1.0297119e-01   1.8582486e-01  -6.7477499e-02   2.7637278e-02
  -5.4408596e-03  -5.0837213e-04  -9.4039060e-03  -6.6546289e-03  -2.2046404e-02  -4.3292065e-03   4.8770262e-03  -1.3445248e-02   6.1728827e-02   2.2312148e-02  -4.9904140e-02  -2.2414667e-02   5.5008788e-02  -9.1543712e-02  -1.1763177e-01   1.8621693e-02   2.3551712e-02  -2.2913557e-01   2.0322148e-01   1.8005374e-01  -3.2268173e-02   2.5345035e-01   3.3917596e-01   8.3183524e-02  -1.6142103e-01  -4.5307628e-01
   1.4772554e-02  -5.4261868e-03   7.7676680e-03   5.4582043e-02   7.2824592e-02   7.5851162e-03  -1.0178240e-02  -7.5956079e-02   2.3866290e-02   3.4134425e-02   4.9979237e-03   1.7377941e-01  -9.0330700e-03   1.4312587e-01   2.6191172e-01  -9.6020006e-02  -1.8718375e-01   5.4845597e-01   2.3148287e-02  -1.7341786e-01   1.7112176e-02  -7.6603106e-01  -5.8174875e-01  -1.9908543e-01  -1.4087803e-01  -2.6949803e-01
   2.5107053e-03   5.3912628e-03   1.6084603e-02  -9.4729453e-03  -1.8081808e-02   6.8445253e-03   7.4813458e-03  -1.3799752e-02   6.3921082e-02   5.9899764e-03   8.7510827e-02   3.5361559e-02  -7.2385401e-02  -2.3932900e-02  -1.5188991e-02   3.1132333e-02   1.4817846e-02   9.9911132e-03  -2.2676915e-01   4.9958851e-02  -1.6333860e-02   2.1920183e-02  -8.6135961e-02   2.4694689e-01   1.4816263e-01   4.1982795e-02
  -1.3666467e-02   1.8621554e-02   1.5381220e-02  -3.5871597e-02  -3.3879271e-02  -2.0854717e-02  -2.0233188e-02  -2.6111777e-02   8.0853655e-02  -1.9914756e-02   6.8501475e-02   1.0678086e-01  -1.0255756e-01  -2.3987759e-02  -1.9175262e-03  -6.4061551e-02  -3.1352670e-01  -3.8236538e-01   1.4385077e-01  -1.2644063e-01   2.7105682e-01  -3.5251818e-01   2.6300674e-01   1.9411009e-01  -1.7454148e-01   2.1731677e-01
  -2.7335831e-03  -2.1405650e-03   1.1085642e-02   2.2972290e-02  -1.6701106e-02  -3.0658893e-02  -5.4420144e-03   5.3951620e-02   8.5177727e-03   4.0727016e-02   2.7501482e-02   5.8541752e-02   4.4899496e-02   1.9323974e-02   1.2232437e-01   5.7809611e-02  -1.4226946e-01  -1.6874459e-02  -6.8318222e-03   1.1004023e-02  -1.2969320e-01   3.0066669e-02  -8.6991506e-02   2.4828139e-01   4.9359977e-02  -3.1260107e-03
   5.8810191e-03  -1.1941105e-04  -4.3773818e-02  -2.1526344e-02  -4.0211902e-02   2.2219923e-03   4.5738002e-02   6.3025769e-02   1.0131630e-01   4.2653947e-03   7.6500382e-02  -3.9242088e-03  -9.2692707e-02  -1.3292252e-01  -9.4454303e-02   2.7099634e-02  -4.3754481e-02  -1.2058169e-01   2.8484154e-02   2.4530088e-01  -6.4022910e-02  -2.0460421e-01  -9.8747465e-02   7.2721746e-02  -1.1238546e-01  -1.9520052e-01
   7.0345776e-04   6.0439758e-03  -4.4171632e-02  -5.8153518e-03  -1.4524159e-02   6.2586131e-02   9.1823912e-03   5.0514112e-02   8.6282998e-02   1.2718966e-01  -8.2356680e-02   9.5403597e-03  -3.8686645e-02  -2.0133090e-01  -1.8936426e-01   2.9591316e-01  -6.3349248e-02  -1.0533207e-01  -1.8682000e-02   1.9750228e-01  -5.3138442e-03   3.5646463e-02  -2.3564009e-01  -4.0398807e-02   5.7032973e-02   1.8142307e-01
   3.1281874e-05  -3.3502647e-04   1.9636604e-03   1.2076293e-02  -5.8333739e-03  -1.5227163e-04  -8.0925047e-03  -1.8171876e-02  -6.6666843e-02  -1.6614923e-02  -1.0216505e-01  -2.5393852e-02   7.3587997e-02  -9.8802418e-02  -9.0169950e-02  -4.7603054e-02  -5.7773332e-02  -4.1005786e-02   2.1646394e-02  -1.3403532e-01  -1.0662516e-01  -8.4563144e-03  -2.5372098e-02   4.4170181e-02  -1.7901722e-02   6.5276254e-02
   7.2328264e-04   3.2947331e-03  -3.3395534e-03  -6.0495163e-03   9.3773043e-03  -3.7975407e-02   6.6931499e-03   4.4826002e-03   9.2047305e-02   7.9443144e-03  -4.5165933e-02   3.4198930e-02   3.7103809e-02  -3.6256786e-03   2.3026052e-02   1.0686876e-02   1.1793512e-01  -3.0586070e-02  -3.2166514e-02   1.6569429e-02   3.3817701e-02  -2.1849906e-02   5.1326004e-02  -7.1031194e-02  -2.0317945e-02  -2.2885987e-02
  -1.9358541e-03   4.5711457e-03  -1.6650726e-03  -2.3863087e-03   5.1887491e-04  -3.3131465e-03  -3.6536375e-03  -5.4968539e-03  -4.0232068e-02  -2.8409661e-02   1.1864551e-02  -7.8505265e-03  -5.7777911e-02   5.1418577e-02  -6.2463073e-02  -8.9470063e-02   6.2678293e-02  -6.2627798e-02   3.1874686e-02  -1.5857332e-01   6.4216344e-02   1.4738481e-01  -5.7352132e-02   1.7204089e-01  -3.3612441e-02   1.9019098e-02
  -6.6329819e-03  -9.7184479e-04  -6.5073140e-03  -3.3409665e-03  -2.8009352e-02  -7.1019931e-03  -5.1845782e-04  -1.0829987e-02   5.5349319e-02   3.0862842e-03  -2.8070377e-02  -1.8459929e-02   6.6797465e-02  -7.7681109e-02  -9.3330728e-02  -1.3171076e-02   2.6383454e-02  -1.7933918e-01   1.9283087e-01   1.6346475e-01  -7.2677008e-02   1.4411287e-01   2.5535590e-01   8.8528061e-02  -1.1693355e-01  -3.7296085e-01
   1.5461021e-02  -9.9455560e-03   2.6571487e-03   5.2046647e-02   7.2417216e-02   1.6130997e-02  -1.3995980e-02  -5.6828344e-02   1.1517713e-02   5.5757449e-02  -1.3910096e-02   1.4048342e-01   1.3648690e-02   7.0153452e-02   2.6171942e-01  -4.0178852e-02  -1.6437811e-01   5.4326958e-01  -1.0512668e-02  -8.1953776e-02   6.4331333e-02  -6.5563192e-01  -4.3877237e-01  -2.2861087e-01  -1.4863336e-01  -3.1839349e-01
   4.1877646e-03   8.0590564e-03   1.4016994e-02  -1.3136680e-02  -1.2619739e-02   5.3091910e-03  -1.0057993e-03  -1.5680683e-02   7.9392504e-02   7.8867211e-04   6.5813449e-02   4.6236007e-02  -7.5998249e-02   3.3792334e-03   7.1632698e-04   3.7511436e-02  -9.9507754e-03   1.9056549e-02  -1.8438907e-01  -2.0227770e-02  -1.7058155e-02   4.2874153e-02  -9.6953555e-02   2.4288348e-01   9.5308174e-02   9.2164241e-02
  -1.4113016e-02   1.5942963e-02   1.2625526e-02  -3.7354393e-02  -2.8970640e-02  -2.5272258e-02   2.1696945e-03  -5.1403485e-02   3.0218615e-02   2.5326489e-02   6.3868719e-02   1.1300836e-01  -7.3547523e-02  -1.0442212e-02  -1.9903511e-02  -6.6766215e-02  -3.4088955e-01  -4.7151581e-01   1.5669411e-01  -5.3681178e-03   3.5736528e-01  -2.6911540e-01   2.9201255e-01   2.7908011e-01  -1.3349902e-01   7.1448796e-02
  -3.7289383e-03   4.0701074e-04   8.2814916e-03   2.3324802e-02  -1.4786091e-02  -4.5648464e-02  -1.5345153e-02   6.1150098e-02  -7.2379059e-03   3.5143696e-02   2.6168285e-02   6.5803151e-02   5.7273778e-02   2.1740940e-02   1.5416917e-01   7.0131469e-02  -1.5731451e-01   6.6352749e-03  -3.7240107e-03  -3.8439366e-02  -1.7438198e-01   7.5892517e-02  -1.3575919e-01   2.2576492e-01  -5.7279755e-02   1.6769209e-02
   7.3146010e-03   5.1277030e-04  -4.0566799e-02  -1.9300335e-02  -3.4743145e-02   1.1129837e-02   5.0434488e-02   6.7663975e-02   1.1162842e-01   9.0390858e-03   5.9905690e-02  -1.5049964e-02  -8.0010400e-02  -1.1860475e-01  -1.3601713e-01   3.8658345e-02  -5.4882487e-02  -1.5131217e-01   3.7650136e-02   2.6213972e-01  -1.2656030e-01  -2.4205111e-01  -9.3938172e-02   6.3717721e-03  -1.1545205e-01  -2.5421301e-01
   1.2054968e-03   5.2191310e-03  -4.6691890e-02  -4.7425573e-03  -1.5761148e-02   6.1047715e-02   1.0205898e-02   5.4750391e-02   8.0008159e-02   1.1090510e-01  -7.6306463e-02  -1.3403752e-02  -4.0474029e-02  -2.2355909e-01  -1.8929168e-01   2.7810856e-01  -7.9596747e-02  -9.1236083e-02  -1.8662997e-02   1.7634220e-01  -2.0190717e-03   3.9539983e-02  -1.7679909e-01  -5.0524567e-02   5.9852306e-02   2.0782472e-01
  -7.2089534e-05  -9.1596385e-04   1.4354923e-03   1.4123845e-02  -3.0121095e-03  -2.0148230e-03  -1.1337800e-02  -1.8055130e-02  -3.6466823e-02  -1.1930686e-02  -1.0476701e-01  -2.5454506e-02   6.9661206e-02  -1.1692633e-01  -8.1996641e-02  -1.1679140e-02  -5.3552787e-02  -2.9265240e-02   1.8674414e-02  -8.1699958e-02  -1.1170358e-01  -3.0848660e-02  -2.4450666e-02  -8.1252423e-03  -5.7507767e-02   2.8468341e-02
  -2.3683101e-04   3.2853567e-03  -3.5792294e-03  -6.6880372e-03   1.0886716e-02  -2.6222753e-02   9.9028031e-03   1.0876158e-02   7.4232756e-02   1.8671250e-02  -1.9657672e-02   5.1453533e-02   1.4736601e-02   6.8870386e-03   1.2735499e-02  -2.1792559e-02   8.9685035e-02  -6.3350544e-02  -3.7341677e-02  -2.0659677e-02   4.6664005e-02   3.2246117e-02   4.5364325e-02  -2.7995166e-02   2.2150976e-02  -1.8907183e-02
  -1.7789129e-03   1.6446558e-03  -6.5733573e-04  -2.6145336e-03   2.6741287e-03   1.5975441e-03   2.4493127e-03  -2.2656012e-03  -3.6523535e-02  -2.3464977e-02   3.8662672e-03   6.7987180e-03  -4.7535429e-02   3.5459230e-02  -2.9295954e-02  -7.2496050e-02   1.8894012e-02  -7.5508261e-02  -1.9220030e-03  -1.6018407e-01   7.1458774e-02   1.3617265e-01  -7.1540093e-03   1.2517062e-01  -4.6510539e-03  -3.7883799e-03
  -7.3301691e-03  -9.6684120e-04  -4.1725266e-03  -3.4394428e-06  -3.1530753e-02  -8.9860775e-03  -3.7275930e-03  -4.7809303e-03   4.9810312e-02  -1.6709787e-02  -3.1439581e-03  -1.5352383e-02   6.3555975e-02  -5.5924740e-02  -7.0660996e-02  -4.2824739e-02   2.1801528e-02  -1.3375562e-01   1.7219245e-01   1.4435325e-01  -1.0398486e-01   4.5282884e-02   1.7104940e-01   9.3712880e-02  -7.3134463e-02  -2.8229671e-01
   1.5649022e-02  -1.4308513e-02  -3.2224534e-03   4.8315093e-02   6.9797062e-02   2.5521912e-02  -1.8376741e-02  -3.5904104e-02  -1.5900797e-04   8.1928784e-02  -3.1091700e-02   1.1223395e-01   3.0474963e-02   5.6828392e-03   2.5649065e-01   1.2370013e-02  -1.4045514e-01   5.3031676e-01  -4.0751299e-02   1.1114339e-02   1.1546361e-01  -5.2547332e-01  -2.9229254e-01  -2.3521057e-01  -1.5433867e-01  -3.5915553e-01
   5.6249170e-03   9.8615538e-03   1.2265813e-02  -1.6449357e-02  -5.5467128e-03   3.4974363e-03  -8.2731606e-03  -1.7588423e-02   8.2934690e-02  -5.1589232e-03   3.9160538e-02   4.9362576e-02  -7.1237630e-02   2.3834016e-02   7.0575738e-03   4.6547313e-02  -1.9884880e-02   2.7921408e-02  -1.3194559e-01  -9.0412618e-02  -2.1176799e-02   6.1083290e-02  -9.8345937e-02   2.1571783e-01   4.2076812e-02   1.4638963e-01
  -1.4210106e-02   1.3048617e-02   9.4368733e-03  -3.7066757e-02  -2.3025088e-02  -2.8180307e-02   2.2754332e-02  -7.2917480e-02  -1.7081031e-02   6.5140547e-02   6.0839955e-02   1.1387621e-01  -4.8246514e-02   4.8053361e-03  -3.5290965e-02  -8.2302414e-02  -3.5084536e-01  -5.2958085e-01   1.6358495e-01   8.7688209e-02   4.1926275e-01  -1.9789673e-01   2.9914319e-01   3.5181665e-01  -9.7445810e-02  -4.3048325e-02
  -4.1376543e-03   2.0408890e-03   5.4968902e-03   2.2786753e-02  -1.3209454e-02  -5.5901960e-02  -2.2009557e-02   6.2100466e-02  -2.5074512e-02   2.8889115e-02   2.0223976e-02   6.6513489e-02   6.6091062e-02   2.1467395e-02   1.7600053e-01   9.0519318e-02  -1.7314633e-01   2.9424024e-02  -4.1244926e-03  -1.0452524e-01  -2.1483038e-01   1.0989535e-01  -1.6462856e-01   1.9243051e-01  -1.4230060e-01   3.4613585e-02
   8.2099161e-03   4.5320283e-04  -3.6737975e-02  -1.5321320e-02  -2.9809159e-02   2.0779142e-02   5.4258118e-02   7.2284420e-02   1.1431976e-01   1.0952904e-02   3.8023352e-02  -2.6359897e-02  -6.5003274e-02  -1.1329277e-01  -1.7428588e-01   3.9358306e-02  -7.3759013e-02  -1.7818566e-01   4.7537463e-02   2.7853961e-01  -1.6949599e-01  -2.5137636e-01  -9.2661886e-02  -4.4775554e-02  -1.1557761e-01  -2.9602052e-01
   2.1284949e-03   4.1539887e-03  -4.7288497e-02  -4.7609217e-03  -1.5690573e-02   5.6713644e-02   1.4014624e-02   5.4691225e-02   7.3129495e-02   9.1941607e-02  -7.0110007e-02  -3.4751320e-02  -3.9106669e-02  -2.3168116e-01  -1.8748938e-01   2.4618531e-01  -8.2203541e-02  -6.6714398e-02  -2.8249645e-02   1.3064454e-01   1.5110666e-02   4.3717288e-02  -9.7818136e-02  -5.4764980e-02   5.4377858e-02   2.0623549e-01
  -1.8864675e-04  -2.0416117e-03   5.0625237e-04   1.6412140e-02   4.2864885e-04  -2.7994635e-04  -1.4698006e-02  -1.7298658e-02  -3.4921690e-03  -1.6034127e-03  -1.0202634e-01  -2.0210005e-02   5.3667087e-02  -1.3541216e-01  -7.5808430e-02   2.8292201e-02  -6.0134173e-02  -2.2598856e-02   1.7803810e-02  -2.0867872e-02  -1.0951356e-01  -5.2992874e-02  -2.5869422e-02  -5.5452534e-02  -8.7119491e-02  -1.5389306e-02
  -6.8615366e-04   3.4370834e-03  -4.4193966e-03  -6.7314372e-03   1.2398578e-02  -1.6145002e-02   9.8053822e-03   1.3512235e-02   6.0373928e-02   3.0082028e-02   4.0010595e-03   6.1816995e-02  -3.3966892e-03   1.5416508e-02   6.1393936e-03  -4.3582829e-02   6.7221917e-02  -8.3618922e-02  -2.1461984e-02  -4.2653528e-02   5.3603804e-02   7.1894728e-02   3.2356258e-02   1.4559161e-02   5.1956064e-02  -1.9175884e-02
  -6.9450425e-04  -1.1027640e-03  -7.0377355e-04  -2.7263216e-03   5.2198138e-03   5.6304388e-03   6.1654835e-03  -5.9456765e-03  -1.4493546e-02  -1.5071888e-02  -6.2796755e-03   1.4354928e-02  -3.0514330e-02   3.0313669e-03   1.2844814e-02  -4.1081358e-02  -2.0176130e-02  -8.3810339e-02  -1.9885407e-02  -1.3392146e-01   6.0306929e-02   1.0653849e-01   3.3301461e-02   6.3382964e-02   1.4977522e-02  -2.9187051e-02
  -7.7861303e-03  -4.0330472e-04  -2.2842176e-03   2.6859172e-03  -3.3343767e-02  -1.0107718e-02  -4.5672341e-03   4.3420497e-03   4.6856506e-02  -3.8206923e-02   2.5055403e-02  -1.4774474e-02   4.6532721e-02  -2.7633139e-02  -5.1962670e-02  -6.9647717e-02   1.1564167e-02  -9.8985145e-02   1.3755684e-01   1.2381087e-01  -1.2842364e-01  -4.0693313e-02   8.7329188e-02   9.6673932e-02  -3.3950968e-02  -1.8159884e-01
   1.5388496e-02  -1.8116299e-02  -9.7084241e-03   4.3780037e-02   6.4834074e-02   3.5440024e-02  -2.3534147e-02  -1.3727843e-02  -9.5780273e-03   1.0893960e-01  -4.4698810e-02   8.8715445e-02   4.1655096e-02  -4.6212599e-02   2.4562487e-01   6.0305392e-02  -1.1567508e-01   5.1090884e-01  -6.9416745e-02   1.0077143e-01   1.6503009e-01  -3.8083533e-01  -1.5216229e-01  -2.1776997e-01  -1.5776862e-01  -3.8721759e-01
   6.6180696e-03   1.0945842e-02   1.0959696e-02  -1.9537878e-02   1.9538338e-03   1.5889283e-03  -1.3998131e-02  -1.9234344e-02   7.6422427e-02  -1.3107999e-02   1.0510646e-02   4.4755486e-02  -5.8583068e-02   3.5433062e-02   2.9270206e-03   5.6928112e-02  -1.5360959e-02   3.1695626e-02  -7.5973666e-02  -1.5522135e-01  -3.0175816e-02   7.4158522e-02  -9.1505748e-02   1.6461356e-01  -1.0108642e-02   1.9859639e-01
  -1.3962691e-02   1.0115032e-02   6.2195901e-03  -3.5119000e-02  -1.6203532e-02  -2.9690939e-02   4.0290225e-02  -9.0241247e-02  -5.8717981e-02   9.9103146e-02   5.9196825e-02   1.1053110e-01  -2.7059567e-02   2.0109840e-02  -4.8791485e-02  -1.0981649e-01  -3.4469257e-01  -5.5685065e-01   1.6416882e-01   1.4947037e-01   4.5591573e-01  -1.4072058e-01   2.8907131e-01   4.0793255e-01  -7.0086198e-02  -1.2180453e-01
  -4.0946092e-03   2.8088374e-03   3.0060648e-03   2.1623402e-02  -1.1858764e-02  -6.0921269e-02  -2.5091930e-02   5.7225588e-02  -4.2454577e-02   2.2545855e-02   1.1109679e-02   6.1359632e-02   6.9605774e-02   1.8158982e-02   1.8716816e-01   1.1569164e-01  -1.8803920e-01   4.8698923e-02  -7.1405726e-03  -1.7853916e-01  -2.4528069e-01   1.3082389e-01  -1.7656806e-01   1.5378331e-01  -2.0128002e-01   4.3605458e-02
   8.5437457e-03  -2.2417521e-04  -3.2575586e-02  -9.8758029e-03  -2.5945806e-02   3.0171122e-02   5.6614558e-02   7.6252753e-02   1.0970428e-01   9.2466362e-03   1.2206346e-02  -3.7289526e-02  -4.8270577e-02  -1.1613092e-01  -2.0644566e-01   2.9508672e-02  -9.8102745e-02  -1.9950295e-01   5.6532741e-02   2.9294803e-01  -1.9277851e-01  -2.3406485e-01  -9.5160142e-02  -7.9406205e-02  -1.1354503e-01  -3.1490349e-01
   3.3829667e-03   2.9052360e-03  -4.6383986e-02  -5.9288487e-03  -1.4493708e-02   5.0494275e-02   2.0572669e-02   5.1636710e-02   6.5350290e-02   7.2018344e-02  -6.5048391e-02  -5.2191026e-02  -3.5117534e-02  -2.2612120e-01  -1.8688517e-01   2.0146061e-01  -7.3250985e-02  -3.5776095e-02  -4.3456221e-02   6.9596550e-02   4.3050009e-02   4.8491302e-02  -7.8442167e-03  -5.5359173e-02   4.1053164e-02   1.7587467e-01
  -2.7577303e-04  -3.1957538e-03  -4.9550184e-04   1.8473979e-02   3.8818317e-03   3.2084102e-03  -1.8101037e-02  -1.8321753e-02   2.4891338e-02   1.1572152e-02  -9.6388589e-02  -1.1454120e-02   3.2360971e-02  -1.4969751e-01  -7.2344619e-02   6.0354530e-02  -6.8233472e-02  -1.9407232e-02   2.1696790e-02   2.8761750e-02  -1.0187981e-01  -6.5620770e-02  -3.0652633e-02  -8.3064969e-02  -1.0536873e-01  -5.4187476e-02
  -7.8194990e-04   3.4625972e-03  -5.4161747e-03  -6.0604794e-03   1.3266613e-02  -9.1655541e-03   7.6282242e-03   1.4811451e-02   5.0061854e-02   3.9625556e-02   2.1586058e-02   6.4345578e-02  -1.4214492e-02   2.1736575e-02   2.9229457e-03  -4.9833440e-02   5.0164279e-02  -8.8683838e-02   5.3371608e-03  -4.7431336e-02   5.4319140e-02   8.8882603e-02   1.7323624e-02   4.8461048e-02   6.4986069e-02  -2.1039262e-02
   8.4762761e-04  -2.9710967e-03  -1.5607655e-03  -2.7239069e-03   7.4384577e-03   8.4186000e-03   7.1479706e-03  -1.4154402e-02   1.5872480e-02  -6.0469660e-03  -1.4724418e-02   1.3899847e-02  -1.2070978e-02  -3.5827811e-02   5.2057158e-02  -7.1848266e-03  -4.7178962e-02  -8.7284335e-02  -2.0493987e-02  -9.3793466e-02   3.5507292e-02   7.1336076e-02   5.3930886e-02   3.6482550e-03   2.3492777e-02  -4.6138149e-02
  -8.1288323e-03   7.4464727e-04  -7.7124052e-04   4.2991187e-03  -3.3845961e-02  -1.0772722e-02  -3.1909836e-03   1.5641428e-02   4.6563247e-02  -6.1232770e-02   5.4364473e-02  -1.7297352e-02   1.8854132e-02   5.5334123e-03  -3.6517078e-02  -9.2723598e-02  -3.4576892e-03  -7.6438538e-02   8.9139225e-02   1.0128178e-01  -1.4799713e-01  -1.1326001e-01   4.6924339e-03   9.3093744e-02  -6.8260495e-04  -7.1273273e-02
   1.4786048e-02  -2.1011131e-02  -1.6629570e-02   3.8892950e-02   5.7732209e-02   4.5395364e-02  -2.9820114e-02   8.9526490e-03  -1.5859687e-02   1.3373857e-01  -5.4497734e-02   6.9399267e-02   4.8610620e-02  -8.2651631e-02   2.2974100e-01   1.0326640e-01  -9.1014508e-02   4.8801990e-01  -9.6418093e-02   1.8190047e-01   2.0770742e-01  -2.2660082e-01  -2.6249245e-02  -1.7860279e-01  -1.5746398e-01  -3.9826044e-01
   7.0944647e-03   1.1506735e-02   1.0084231e-02  -2.2488954e-02   8.9263807e-03  -3.2177018e-04  -1.8011711e-02  -2.0286851e-02   6.1929549e-02  -2.3333784e-02  -1.7916288e-02   3.3501357e-02  -3.9218687e-02   3.7421987e-02  -1.0676078e-02   6.7630487e-02   8.8185317e-04   2.8015464e-02  -2.1868075e-02  -2.1030104e-01  -4.4439273e-02   8.0640633e-02  -7.8237403e-02   8.9506790e-02  -5.8103758e-02   2.4316602e-01
  -1.3389029e-02   7.2938506e-03   3.2450748e-03  -3.1700090e-02  -8.6847137e-03  -2.9957927e-02   5.3823643e-02  -1.0287878e-01  -9.2983892e-02   1.2697178e-01   5.8337842e-02   1.0418712e-01  -1.0189632e-02   3.3896440e-02  -6.0990431e-02  -1.4668126e-01  -3.2560181e-01  -5.5554467e-01   1.5898717e-01   1.8023541e-01   4.6874336e-01  -9.7609930e-02   2.6760425e-01   4.4345903e-01  -5.3830578e-02  -1.6426427e-01
  -3.7510526e-03   2.8457792e-03   1.0334944e-03   2.0101105e-02  -1.0775013e-02  -6.0797097e-02  -2.4603663e-02   4.7327771e-02  -5.7189486e-02   1.6510368e-02   4.9047738e-04   5.1225864e-02   6.6604780e-02   1.1958912e-02   1.8733107e-01   1.4150856e-01  -1.9971237e-01   6.2035277e-02  -1.1362989e-02  -2.5163677e-01  -2.6155678e-01   1.3866937e-01  -1.7496939e-01   1.1624894e-01  -2.3207782e-01   3.9511397e-02
   8.3423506e-03  -1.3923179e-03  -2.8381471e-02  -3.3961335e-03  -2.3462405e-02   3.8437435e-02   5.6952831e-02   7.8986460e-02   9.8738104e-02   3.7442665e-03  -1.5669016e-02  -4.6745966e-02  -3.0604741e-02  -1.2497864e-01  -2.2973721e-01   1.1071604e-02  -1.2559650e-01  -2.1372948e-01   6.2958144e-02   3.0351036e-01  -1.9832370e-01  -1.9364568e-01  -1.0151497e-01  -9.8792489e-02  -1.1071053e-01  -3.0729163e-01
   4.8509271e-03   1.5228129e-03  -4.4429827e-02  -8.1510351e-03  -1.2461464e-02   4.3455446e-02   2.9550385e-02   4.7088228e-02   5.6539878e-02   5.2654130e-02  -6.1891203e-02  -6.3954761e-02  -2.9105327e-02  -2.0860585e-01  -1.8939985e-01   1.4658597e-01  -5.5949058e-02  -2.3114211e-03  -6.0774297e-02   2.9040618e-03   7.8054020e-02   5.3784480e-02   8.3598717e-02  -5.4833641e-02   2.1062096e-02   1.2019154e-01
  -3.9312223e-04  -3.9417562e-03  -1.1650192e-03   1.9974359e-02   6.7313525e-03   7.0129399e-03  -2.1071297e-02  -2.2076937e-02   4.2684549e-02   2.4048005e-02  -8.9928917e-02  -1.9961276e-03   1.0675282e-02  -1.5557358e-01  -7.2530491e-02   7.6001785e-02  -7.0421523e-02  -1.8030032e-02   2.9877982e-02   5.5576838e-02  -8.7945767e-02  -6.2922569e-02  -3.9470991e-02  -8.2789946e-02  -1.1102418e-01  -7.7973235e-02
  -7.4842335e-04   3.2769516e-03  -6.1979943e-03  -4.8331235e-03   1.3039478e-02  -5.6926905e-03   4.7901249e-03   1.7275672e-02   4.1941914e-02   4.4999298e-02   3.1504993e-02   5.9475646e-02  -1.6998562e-02   2.5852250e-02   2.6325902e-03  -4.0489160e-02   3.7165948e-02  -7.9771174e-02   3.2240843e-02  -3.8108573e-02   4.9871202e-02   8.2281764e-02   3.7180015e-03   6.7790469e-02   6.2238076e-02  -1.8437593e-02
   2.3133651e-03  -3.5981357e-03  -2.7862946e-03  -2.4499487e-03   8.6285963e-03   9.7429772e-03   5.8791148e-03  -2.3174312e-02   4.3876917e-02   7.5250160e-04  -1.9633397e-02   5.4984473e-03   2.3202875e-03  -6.9383000e-02   7.7493507e-02   2.0829484e-02  -5.8399644e-02  -8.4413455e-02  -6.4560304e-03  -5.0925591e-02   5.6298266e-03   3.9130881e-02   5.0728938e-02  -4.1812447e-02   2.1592412e-02  -4.7084638e-02
  -8.3458866e-03   2.3952063e-03   4.6308982e-04   4.6856253e-03  -3.3028263e-02  -1.1370868e-02   5.7462240e-05   2.7613417e-02   4.7900746e-02  -8.4225170e-02   8.1097129e-02  -2.2250409e-02  -1.4900435e-02   4.1479547e-02  -2.1578781e-02  -1.1114907e-01  -2.2592376e-02  -6.3533911e-02   3.0750357e-02   7.5211788e-02  -1.6367460e-01  -1.7357534e-01  -7.6141024e-02   7.9108611e-02   2.6804697e-02   4.4921185e-02
   1.4011985e-02  -2.2717550e-02  -2.3774903e-02   3.4149372e-02   4.9061069e-02   5.4794997e-02  -3.7548478e-02   3.1113913e-02  -1.8584327e-02   1.5407975e-01  -6.1498914e-02   5.3793419e-02   5.3680766e-02  -1.0208601e-01   2.1008515e-01   1.4164224e-01  -6.7829690e-02   4.6539428e-01  -1.1989026e-01   2.4980273e-01   2.3905491e-01  -6.7359472e-02   8.0173061e-02  -1.2198430e-01  -1.5133839e-01  -3.9057400e-01
   7.1136101e-03   1.1721478e-02   9.5552538e-03  -2.5286554e-02   1.4715154e-02  -2.1865957e-03  -2.0189311e-02  -2.0558920e-02   4.1727322e-02  -3.4981541e-02  -4.4571188e-02   1.7667458e-02  -1.4870039e-02   3.0112015e-02  -3.1315676e-02   7.8042206e-02   2.4600057e-02   1.7004811e-02   2.6113958e-02  -2.5221661e-01  -6.2782446e-02   7.9770118e-02  -6.0432534e-02  -7.4210959e-03  -9.7626282e-02   2.7359237e-01
  -1.2518453e-02   4.6884466e-03   6.7453119e-04  -2.7040057e-02  -6.6992969e-04  -2.9120635e-02   6.2670633e-02  -1.1029885e-01  -1.1873171e-01   1.4864467e-01   5.7469000e-02   9.6048195e-02   2.2481440e-03   4.4784437e-02  -7.2416492e-02  -1.8892747e-01  -2.9820264e-01  -5.2960540e-01   1.4933734e-01   1.8336291e-01   4.6121061e-01  -6.7116579e-02   2.4108669e-01   4.5535251e-01  -4.9796619e-02  -1.7327643e-01
  -3.2516691e-03   2.3583792e-03  -2.7116908e-04   1.8441436e-02  -1.0180867e-02  -5.6153432e-02  -2.0848468e-02   3.3610990e-02  -6.7738097e-02   1.0862394e-02  -9.9675452e-03   3.7058335e-02   5.6587323e-02   3.3101090e-03   1.7655001e-01   1.6333078e-01  -2.0580178e-01   6.7573966e-02  -1.5177212e-02  -3.1601571e-01  -2.6161880e-01   1.3457312e-01  -1.6290384e-01   8.6124184e-02  -2.3474177e-01   2.1567425e-02
   7.6794665e-03  -2.8835361e-03  -2.4455336e-02   3.5742961e-03  -2.2414282e-02   4.4888989e-02   5.4785136e-02   7.9925938e-02   8.2812152e-02  -5.1227490e-03  -4.3310910e-02  -5.3140746e-02  -1.2855326e-02  -1.3677391e-01  -2.4173617e-01  -1.2838646e-02  -1.5397106e-01  -2.1961770e-01   6.5504738e-02   3.0783574e-01  -1.8975931e-01  -1.3491623e-01  -1.1169549e-01  -1.0606025e-01  -1.0920597e-01  -2.7228582e-01
   6.4019398e-03   6.2005779e-05  -4.1852620e-02  -1.1184510e-02  -9.9523833e-03   3.6609692e-02   4.0273575e-02   4.2465597e-02   4.6864434e-02   3.4956423e-02  -6.0891611e-02  -6.9032829e-02  -2.1636898e-02  -1.8197994e-01  -1.9557439e-01   8.5407092e-02  -3.4024841e-02   3.0374286e-02  -7.7610427e-02  -6.0337786e-02   1.1582095e-01   5.9414186e-02   1.6721146e-01  -5.5601335e-02  -3.8276076e-03   4.6458167e-02
  -6.6382641e-04  -4.0206116e-03  -1.0935621e-03   2.0738397e-02   8.4969013e-03   1.0393252e-02  -2.2727581e-02  -2.7768638e-02   4.6209378e-02   3.2432702e-02  -8.4242594e-02   5.2073519e-03  -8.5896808e-03  -1.5008456e-01  -7.6840303e-02   7.2322730e-02  -6.3477110e-02  -1.6851294e-02   3.8537517e-02   5.7067760e-02  -6.5119234e-02  -4.4217506e-02  -5.2077076e-02  -5.5350486e-02  -1.0286582e-01  -8.0103320e-02
  -7.6302837e-04   2.9859788e-03  -6.5580148e-03  -3.4067351e-03   1.1592540e-02  -5.3286256e-03   2.4989460e-03   2.2394508e-02   3.4705733e-02   4.4701550e-02   3.4107125e-02   4.8739540e-02  -1.2788098e-02   2.7671363e-02   5.3672041e-03  -1.9571772e-02   2.6824336e-02  -6.1128287e-02   5.0630669e-02  -2.1245727e-02   4.2213369e-02   5.7563675e-02  -6.8833187e-03   6.9667669e-02   4.9409701e-02  -5.3111902e-03
   3.2477562e-03  -2.9869329e-03  -3.8779426e-03  -1.6580729e-03   8.3167937e-03   9.5481444e-03   3.4768006e-03  -2.9089246e-02   6.0839464e-02   3.2285957e-03  -2.1261823e-02  -9.6460205e-03   8.2701120e-03  -8.7082563e-02   8.1689213e-02   3.9300144e-02  -5.3839897e-02  -7.2914984e-02   1.6603376e-02  -1.1943189e-02  -1.9280659e-02   1.3218956e-02   2.6155731e-02  -6.6958335e-02   1.1742630e-02  -2.9388062e-02
  -8.3287139e-03   4.3445917e-03   1.5740428e-03   3.9333292e-03  -3.0600616e-02  -1.2280113e-02   4.7498752e-03   3.8283993e-02   4.9474900e-02  -1.0469196e-01   1.0130731e-01  -2.8025052e-02  -4.9482199e-02   7.7628091e-02  -3.9569045e-03  -1.2442508e-01  -4.4517011e-02  -5.5859099e-02  -3.1445787e-02   4.3984195e-02  -1.7531408e-01  -2.2399473e-01  -1.5364580e-01   5.3535057e-02   4.8635027e-02   1.5853219e-01
   1.3272593e-02  -2.3068405e-02  -3.0876676e-02   3.0033960e-02   3.9658787e-02   6.3033622e-02  -4.6850371e-02   5.1514763e-02  -1.7491916e-02   1.6834910e-01  -6.7265560e-02   4.1447735e-02   5.9613846e-02  -1.0433316e-01   1.8766006e-01   1.7620430e-01  -4.7366887e-02   4.4614044e-01  -1.3693813e-01   3.0080191e-01   2.5586309e-01   9.2682153e-02   1.6471387e-01  -5.2765791e-02  -1.3738760e-01  -3.6619384e-01
   6.8311877e-03   1.1702465e-02   9.2782404e-03  -2.7795594e-02   1.8928570e-02  -3.9575321e-03  -2.0384123e-02  -2.0095212e-02   1.8376109e-02  -4.6253120e-02  -6.8223697e-02  -2.8156781e-05   1.2219320e-02   1.4647375e-02  -5.5908860e-02   8.7893234e-02   5.1088362e-02   5.8082183e-04   6.4469019e-02  -2.7816583e-01  -8.2432797e-02   7.1399677e-02  -3.9640720e-02  -1.2056134e-01  -1.2418766e-01   2.8210585e-01
  -1.1394542e-02   2.3412102e-03  -1.4165379e-03  -2.1382058e-02   7.5995329e-03  -2.7264980e-02   6.6398076e-02  -1.1198993e-01  -1.3530716e-01   1.6409239e-01   5.5804830e-02   8.7200244e-02   1.0134116e-02   5.1699050e-02  -8.3622068e-02  -2.3176246e-01  -2.6801240e-01  -4.8442809e-01   1.3699611e-01   1.6473039e-01   4.3840373e-01  -4.6683584e-02   2.1579993e-01   4.4190658e-01  -5.7904104e-02  -1.5423832e-01
  -2.7149389e-03   1.6019160e-03  -8.4630104e-04   1.6790813e-02  -1.0462800e-02  -4.8046348e-02  -1.4340211e-02   1.7679994e-02  -7.3365549e-02   5.3135060e-03  -1.8825362e-02   1.9795046e-02   3.9881048e-02  -7.2807207e-03   1.5545540e-01   1.7649312e-01  -2.0436347e-01   6.4185543e-02  -1.7121356e-02  -3.6573007e-01  -2.4576487e-01   1.2061542e-01  -1.4252656e-01   6.8440141e-02  -2.1126030e-01  -7.2612857e-03
   6.6683972e-03  -4.5075162e-03  -2.1071810e-02   1.0426516e-02  -2.2615020e-02   4.9043119e-02   4.9725083e-02   7.8510437e-02   6.3555082e-02  -1.6391187e-02  -6.8203431e-02  -5.4561777e-02   4.1817746e-03  -1.4793893e-01  -2.4065343e-01  -3.8528623e-02  -1.8099816e-01  -2.1635773e-01   6.3515354e-02   3.0305256e-01  -1.7196091e-01  -6.3205259e-02  -1.2554378e-01  -1.0533074e-01  -1.1194406e-01  -2.1195971e-01
   7.9085245e-03  -1.4062906e-03  -3.9022269e-02  -1.4657750e-02  -7.3475051e-03   3.0734990e-02   5.1692936e-02   3.8854380e-02   3.6857679e-02   1.9493740e-02  -6.1839454e-02  -6.7290063e-02  -1.3227908e-02  -1.4990839e-01  -2.0449601e-01   2.2701563e-02  -1.1100384e-02   5.9835396e-02  -9.2444656e-02  -1.1249399e-01   1.5166052e-01   6.5392214e-02   2.3438251e-01  -5.9531300e-02  -3.1459138e-02  -3.5333808e-02
  -1.2070258e-03  -3.3869622e-03   4.6501394e-06   2.0719717e-02   8.9732920e-03   1.3276042e-02  -2.2123120e-02  -3.3254025e-02   3.4637553e-02   3.4410533e-02  -8.0273076e-02   7.9665621e-03  -2.4203082e-02  -1.3242119e-01  -8.4695323e-02   5.2394453e-02  -4.8914055e-02  -1.4458996e-02   4.1911587e-02   3.7968321e-02  -3.1262184e-02  -1.3833544e-02  -6.7164807e-02  -9.9530144e-03  -8.0591605e-02  -5.8274446e-02
  -8.8242255e-04   2.8097572e-03  -6.4690739e-03  -2.1867650e-03   9.1533716e-03  -7.1938540e-03   1.5315327e-03   2.9971740e-02   2.7916527e-02   3.8436815e-02   3.0727119e-02   3.4406436e-02  -3.6793128e-03   2.6950853e-02   1.1859176e-02   6.2635869e-03   1.8425072e-02  -3.8564427e-02   5.5893724e-02  -4.5062611e-03   3.3855891e-02   2.4376238e-02  -1.4326580e-02   5.5010545e-02   3.5314424e-02   2.1124563e-02
   3.3937637e-03  -1.4484746e-03  -4.4264799e-03  -1.3883045e-04   6.4182981e-03   7.9217653e-03   1.3267009e-03  -2.9037763e-02   6.2191778e-02   6.1801583e-04  -2.1384444e-02  -2.9092777e-02   3.5042330e-03  -8.2287095e-02   6.2177460e-02   4.8663117e-02  -3.6479621e-02  -5.1017796e-02   4.1967562e-02   2.0577770e-02  -3.0630101e-02  -7.2962684e-03  -1.1852192e-02  -7.1447537e-02  -2.8110155e-03   4.2227614e-03
  -7.9506644e-03   6.2907848e-03   2.7555788e-03   2.2789424e-03  -2.6232366e-02  -1.3788183e-02   1.0413741e-02   4.5537256e-02   5.0163679e-02  -1.2000114e-01   1.1204792e-01  -3.2673117e-02  -7.9933669e-02   1.1103127e-01   1.8422158e-02  -1.3282513e-01  -6.6662325e-02  -4.9460478e-02  -9.0541189e-02   6.8348210e-03  -1.8218947e-01  -2.6722692e-01  -2.2529393e-01   1.8814854e-02   6.3821621e-02   2.5759421e-01
   1.2759247e-02  -2.2010432e-02  -3.7620378e-02   2.6942695e-02   3.0453805e-02   6.9588705e-02  -5.7596858e-02   6.8876271e-02  -1.2278965e-02   1.7520350e-01  -7.3163023e-02   3.1783149e-02   6.8958851e-02  -9.0474497e-02   1.6244074e-01   2.0769227e-01  -3.0355504e-02   4.3135044e-01  -1.4462728e-01   3.3276991e-01   2.5616688e-01   2.4994289e-01   2.2775543e-01   2.4460458e-02  -1.1422338e-01  -3.3047054e-01
   6.4397192e-03   1.1477922e-02   9.1774948e-03  -2.9787956e-02   2.1335968e-02  -5.5476477e-03  -1.8420538e-02  -1.9143564e-02  -5.2343006e-03  -5.4845271e-02  -8.7542051e-02  -1.6705495e-02   3.9228265e-02  -7.2122462e-03  -8.1565487e-02   9.7064988e-02   7.6137284e-02  -1.8523655e-02   8.9950437e-02  -2.8570078e-01  -9.9445510e-02   5.6063018e-02  -1.6840419e-02  -2.4048389e-01  -1.3403087e-01   2.6055203e-01
  -1.0079388e-02   2.3334132e-04  -3.0153334e-03  -1.4963434e-02   1.5826439e-02  -2.4408963e-02   6.4799116e-02  -1.0752551e-01  -1.4249886e-01   1.7330147e-01   5.2718152e-02   7.8506749e-02   1.3308375e-02   5.3958754e-02  -9.5207078e-02  -2.7011657e-01  -2.4079716e-01  -4.2644957e-01   1.2389853e-01   1.3188718e-01   4.0642903e-01  -3.3004311e-02   1.9738696e-01   4.0297227e-01  -7.7012042e-02  -1.1388805e-01
  -2.2185187e-03   8.4913008e-04  -7.1984590e-04   1.5212145e-02  -1.2110804e-02  -3.7829967e-02  -5.7235110e-03   1.4879598e-03  -7.4153404e-02  -7.4301998e-04  -2.5072701e-02   3.5616813e-04   1.7661077e-02  -1.9460083e-02   1.2540092e-01   1.7686230e-01  -1.9429691e-01   5.1617578e-02  -1.6199474e-02  -3.9707337e-01  -2.1648035e-01   9.9503017e-02  -1.1468963e-01   6.5978091e-02  -1.6525602e-01  -4.0712399e-02
   5.4479057e-03  -6.0720536e-03  -1.8449084e-02   1.6540249e-02  -2.3687722e-02   5.0643159e-02   4.1562833e-02   7.4189996e-02   4.2654691e-02  -2.8741421e-02  -8.7883028e-02  -4.9074732e-02   1.9814159e-02  -1.5478846e-01  -2.2562002e-01  -6.2286511e-02  -2.0449771e-01  -2.0372634e-01   5.7027488e-02   2.8618486e-01  -1.5036672e-01   1.6224151e-02  -1.4272401e-01  -1.0091949e-01  -1.2230961e-01  -1.3127223e-01
   9.2586027e-03  -2.7932594e-03  -3.6237101e-02  -1.8100707e-02  -5.0079296e-03   2.6250065e-02   6.2401897e-02   3.6829011e-02   2.7405979e-02   6.2681785e-03  -6.4163010e-02  -5.9465337e-02  -4.3879251e-03  -1.1648376e-01  -2.1401549e-01  -3.6179504e-02   9.8271525e-03   8.4574408e-02  -1.0476419e-01  -1.4793104e-01   1.8072549e-01   7.2138890e-02   2.7759777e-01  -6.7547232e-02  -5.9489427e-02  -1.1412382e-01
  -2.0655295e-03  -2.1906055e-03   2.1524502e-03   1.9940661e-02   8.3259331e-03   1.5978182e-02  -1.8779009e-02  -3.5945351e-02   1.0100790e-02   2.9448573e-02  -7.8111173e-02   5.5638966e-03  -3.5511765e-02  -1.0462245e-01  -9.4140851e-02   2.4001311e-02  -3.1807233e-02  -9.9132907e-03   3.4694279e-02   6.6432234e-03   1.2740825e-02   2.0564068e-02  -8.2545097e-02   3.8534786e-02  -4.6288221e-02  -1.5284810e-02
  -1.0270878e-03   2.9843081e-03  -6.0346446e-03  -1.4587855e-03   6.2195124e-03  -1.0275193e-02   2.2233146e-03   3.8075528e-02   2.2407656e-02   2.7240994e-02   2.2837233e-02   1.9096635e-02   7.7802371e-03   2.3482331e-02   2.2947195e-02   2.9432355e-02   1.2253612e-02  -1.7785397e-02   4.7957459e-02   5.5095482e-03   2.7522704e-02  -6.3082870e-03  -1.9023522e-02   2.8883287e-02   2.9383340e-02   5.8832695e-02
   2.7601313e-03   5.0353295e-04  -4.2556217e-03   2.1403201e-03   3.2963722e-03   5.0520902e-03   5.8056985e-04  -2.2295396e-02   4.8563369e-02  -6.2897178e-03  -2.2327770e-02  -4.9295842e-02  -1.1568618e-02  -5.4183156e-02   2.2093423e-02   5.1729240e-02  -1.0874196e-02  -1.9155311e-02   6.3723379e-02   4.6639713e-02  -2.3926680e-02  -2.5140398e-02  -5.1975343e-02  -5.8796572e-02  -1.8907929e-02   4.5617577e-02
  -7.1465390e-03   7.8897976e-03   4.1789836e-03   5.2774385e-06  -1.9798227e-02  -1.6033343e-02   1.6513760e-02   4.7553658e-02   4.9438757e-02  -1.2817824e-01   1.1222947e-01  -3.4573877e-02  -1.0247084e-01   1.3863625e-01   4.5520947e-02  -1.3757092e-01  -8.5185397e-02  -4.2444501e-02  -1.4032190e-01  -3.5537010e-02  -1.8375891e-01  -3.0541041e-01  -2.8779650e-01  -1.9562019e-02   6.9913373e-02   3.2979619e-01
   1.2594180e-02  -1.9591616e-02  -4.3679809e-02   2.5108474e-02   2.2272952e-02   7.4106946e-02  -6.9398955e-02   8.2132097e-02  -2.5942875e-03   1.7322001e-01  -7.9796809e-02   2.3871559e-02   8.3509431e-02  -6.2639799e-02   1.3301901e-01   2.3647259e-01  -1.6869407e-02   4.1927708e-01  -1.4085619e-01   3.4542384e-01   2.3909222e-01   4.0172986e-01   2.7195079e-01   1.0547707e-01  -8.1262406e-02  -2.9028945e-01
   6.1056208e-03   1.1001529e-02   9.1952576e-03  -3.0995086e-02   2.1754575e-02  -6.8081871e-03  -1.4142754e-02  -1.8037890e-02  -2.6004931e-02  -5.8482136e-02  -1.0082360e-01  -2.9840853e-02   6.2734158e-02  -3.3267227e-02  -1.0618916e-01   1.0537670e-01   9.6675183e-02  -3.7609567e-02   9.9242254e-02  -2.7262557e-01  -1.0939973e-01   3.5110937e-02   7.5474729e-03  -3.5456088e-01  -1.2480386e-01   2.0230511e-01
  -8.6545282e-03  -1.7037133e-03  -4.1505469e-03  -8.0035384e-03   2.3656948e-02  -2.0514365e-02   5.7871737e-02  -9.6647022e-02  -1.4052256e-01   1.7627034e-01   4.7798881e-02   7.0543239e-02   1.1616849e-02   5.1322752e-02  -1.0774121e-01  -2.9916288e-01  -2.2194198e-01  -3.6255518e-01   1.1185559e-01   9.3086438e-02   3.7171178e-01  -2.2390287e-02   1.9033432e-01   3.3996983e-01  -1.0506441e-01  -5.8965531e-02
  -1.7911790e-03   3.5214754e-04  -2.4037277e-06   1.3699917e-02  -1.5625632e-02  -2.7007299e-02   4.2804389e-03  -1.2788705e-02  -7.0871672e-02  -8.0807258e-03  -2.8269186e-02  -2.0321231e-02  -8.1539223e-03  -3.3161249e-02   8.8507401e-02   1.6142688e-01  -1.7558248e-01   3.0618548e-02  -1.2062782e-02  -4.0852073e-01  -1.7799560e-01   7.4189489e-02  -7.8811432e-02   7.8653981e-02  -1.0171962e-01  -7.0338129e-02
   4.1634913e-03  -7.4027266e-03  -1.6712332e-02   2.1342629e-02  -2.5146063e-02   4.9679922e-02   3.0373502e-02   6.6487975e-02   2.1690347e-02  -4.0746185e-02  -1.0027612e-01  -3.5114615e-02   3.3436308e-02  -1.5390808e-01  -1.9691391e-01  -8.0870340e-02  -2.2242804e-01  -1.8219748e-01   4.6577405e-02   2.5477319e-01  -1.3012145e-01   9.8578386e-02  -1.6267402e-01  -9.6721300e-02  -1.4350246e-01  -3.7528488e-02
   1.0363336e-02  -4.0008702e-03  -3.3718640e-02  -2.0984005e-02  -3.2414565e-03   2.3168000e-02   7.0729709e-02   3.6387941e-02   1.9637631e-02  -5.2137616e-03  -6.7069641e-02  -4.7056180e-02   4.3003176e-03  -8.5781404e-02  -2.2119788e-01  -8.5742363e-02   2.6700557e-02   1.0397378e-01  -1.1486086e-01  -1.6326497e-01   1.9835127e-01   8.0535052e-02   2.9087128e-01  -7.9329280e-02  -8.5559651e-02  -1.7967886e-01
  -3.1536570e-03  -7.2586652e-04   5.0122563e-03   1.8442731e-02   7.0991477e-03   1.8814615e-02  -1.3168922e-02  -3.3900387e-02  -2.2583904e-02   1.9092994e-02  -7.6925984e-02  -9.6695220e-04  -4.1537822e-02  -7.1831076e-02  -1.0197915e-01  -2.7981205e-03  -1.8505339e-02  -3.0738540e-03   1.4544727e-02  -2.8701882e-02   6.1129172e-02   5.0487245e-02  -9.5445288e-02   7.3912065e-02  -5.6494795e-03   4.0706661e-02
  -1.0215059e-03   3.6615280e-03  -5.4296694e-03  -1.2674454e-03   3.3985533e-03  -1.3750908e-02   4.5306079e-03   4.3592336e-02   2.0158741e-02   1.3300841e-02   1.1533195e-02   5.4188557e-03   1.9007629e-02   1.7452571e-02   3.8636186e-02   4.3177054e-02   9.5561195e-03  -2.9470578e-03   3.0762767e-02   4.9522507e-03   2.5570761e-02  -2.5110483e-02  -2.1022107e-02  -1.3556642e-05   3.8661023e-02   1.0096774e-01
   1.6210886e-03   2.2886453e-03  -3.4918454e-03   4.9334913e-03  -3.0004619e-04   1.2090433e-03   1.7242459e-03  -1.0832335e-02   2.5611506e-02  -1.5369867e-02  -2.5924840e-02  -6.6072495e-02  -3.3881084e-02  -8.4359410e-03  -3.0297794e-02   5.1506547e-02   1.8309926e-02   1.8625891e-02   7.8170571e-02   6.7009060e-02  -3.5240135e-04  -4.2149179e-02  -8.2324033e-02  -3.4054035e-02  -3.3844934e-02   8.2388256e-02
  -5.9642372e-03   8.8271478e-03   5.9209906e-03  -2.6348820e-03  -1.1532097e-02  -1.8956504e-02   2.2404784e-02   4.3234436e-02   4.7296481e-02  -1.2839632e-01   1.0284742e-01  -3.2937788e-02  -1.1504535e-01   1.5762901e-01   7.5126192e-02  -1.4071502e-01  -9.5614102e-02  -3.5356523e-02  -1.7613183e-01  -8.0841131e-02  -1.8022822e-01  -3.3939713e-01  -3.3770122e-01  -5.4795689e-02   6.3483921e-02   3.6644308e-01
   1.2792197e-02  -1.5938432e-02  -4.8763611e-02   2.4556105e-02   1.5699755e-02   7.6471960e-02  -8.1668798e-02   9.0672177e-02   1.1749954e-02   1.6074610e-01  -8.6799609e-02   1.6304219e-02   1.0393904e-01  -2.3740240e-02   9.6888085e-02   2.6235388e-01  -6.5307420e-03   4.0542671e-01  -1.2482829e-01   3.4029461e-01   2.0474983e-01   5.4635172e-01   3.0142188e-01   1.8600099e-01  -3.8566682e-02  -2.5158729e-01
   5.9215518e-03   1.0183294e-02   9.2739548e-03  -3.1165855e-02   1.9981844e-02  -7.5233652e-03  -7.4969350e-03  -1.7047873e-02  -4.0944495e-02  -5.5367791e-02  -1.0602195e-01  -3.7675491e-02   7.8852189e-02  -6.1029010e-02  -1.2863062e-01   1.1244011e-01   1.1096785e-01  -5.4421371e-02   8.9016627e-02  -2.3717350e-01  -1.0815067e-01   1.0773779e-02   3.3434002e-02  -4.4849977e-01  -9.5857398e-02   1.0460423e-01
  -7.2155671e-03  -3.5684211e-03  -4.8717589e-03  -6.9618972e-04   3.0703688e-02  -1.5521378e-02   4.5807976e-02  -7.9370988e-02  -1.3003675e-01   1.7308384e-01   4.0816113e-02   6.3596282e-02   5.0436356e-03   4.3986010e-02  -1.2158127e-01  -3.1476989e-01  -2.1587610e-01  -2.9932576e-01   1.0236584e-01   5.6268275e-02   3.4028480e-01  -1.1160506e-02   1.9754458e-01   2.5574934e-01  -1.3923705e-01   4.9604603e-03
  -1.4124188e-03   3.0097753e-04   1.1245699e-03   1.2214688e-02  -2.1407714e-02  -1.7082963e-02   1.4891188e-02  -2.2955512e-02  -6.4742078e-02  -1.7411003e-02  -2.8593834e-02  -4.1225801e-02  -3.5137439e-02  -4.8609196e-02   4.7525371e-02   1.2884562e-01  -1.4927242e-01   3.0059817e-03  -5.0059830e-03  -4.0030500e-01  -1.3565542e-01   4.7482265e-02  -3.3036165e-02   1.0341782e-01  -2.6849578e-02  -8.7170605e-02
   2.9475039e-03  -8.3581945e-03  -1.5859381e-02   2.4365799e-02  -2.6488885e-02   4.6415689e-02   1.6633843e-02   5.5108407e-02   1.9702837e-03  -5.1143059e-02  -1.0405352e-01  -1.1905513e-02   4.4474664e-02  -1.4249270e-01  -1.5608604e-01  -9.1883338e-02  -2.3307768e-01  -1.5297382e-01   3.2855567e-02   2.0758189e-01  -1.1516975e-01   1.7972863e-01  -1.8459068e-01  -9.5844371e-02  -1.7761456e-01   6.0545158e-02
   1.1159726e-02  -4.9398238e-03  -3.1609429e-02  -2.2766330e-02  -2.2830819e-03   2.1137292e-02   7.4926887e-02   3.7021006e-02   1.4726324e-02  -1.5789990e-02  -6.9708287e-02  -3.2103879e-02   1.2106696e-02  -6.1418033e-02  -2.2291930e-01  -1.2083937e-01   3.8439369e-02   1.1812271e-01  -1.2357799e-01  -1.5738537e-01   2.0050241e-01   9.1781155e-02   2.7023213e-01  -9.3191881e-02  -1.0741923e-01  -2.2430978e-01
  -4.2462615e-03   6.3087731e-04   7.8838592e-03   1.6277980e-02   6.1089663e-03   2.1748004e-02  -6.9065957e-03  -2.6730046e-02  -5.6561789e-02   6.7358877e-03  -7.5170796e-02  -9.0933350e-03  -4.0626973e-02  -4.1826993e-02  -1.0445534e-01  -1.8527000e-02  -1.4079774e-02   5.1506547e-03  -1.6287450e-02  -6.2595061e-02   1.0308240e-01   6.9130494e-02  -1.0281742e-01   8.3327274e-02   3.1881405e-02   9.6834247e-02
  -6.7075607e-04   4.8243485e-03  -4.8762505e-03  -1.3872080e-03   1.2255936e-03  -1.7249907e-02   8.0325402e-03   4.3218370e-02   2.3697831e-02  -4.7277018e-04  -2.5402659e-03  -4.3121857e-03   2.7613375e-02   9.8297780e-03   5.7096437e-02   4.3214471e-02   1.2270613e-02   4.2230181e-03   1.1061408e-02  -6.2586166e-03   2.9032653e-02  -2.6698068e-02  -1.9339699e-02  -2.0973719e-02   6.4879758e-02   1.3681285e-01
   4.4411154e-04   3.4205033e-03  -2.5108025e-03   7.6994328e-03  -3.4078020e-03  -3.2071901e-03   4.4797763e-03   9.5941639e-04   2.5585081e-03  -2.3798945e-02  -3.2725125e-02  -7.5384676e-02  -5.8257476e-02   4.3568122e-02  -8.3003681e-02   4.9229969e-02   4.7028218e-02   5.4351729e-02   8.4258324e-02   8.1355492e-02   3.3261273e-02  -5.7148256e-02  -9.3487740e-02  -1.9475508e-03  -4.5147337e-02   1.0141955e-01
  -4.5714519e-03   8.8818625e-03   7.9164226e-03  -5.4408933e-03  -2.0344363e-03  -2.2258855e-02   2.7295684e-02   3.2488098e-02   4.3877109e-02  -1.2096537e-01   8.6568460e-02  -2.7985899e-02  -1.1744546e-01   1.6574432e-01   1.0375804e-01  -1.4473276e-01  -9.4017747e-02  -3.0246017e-02  -1.9500615e-01  -1.2557657e-01  -1.7256468e-01  -3.6846913e-01  -3.7215068e-01  -8.0888645e-02   4.1237238e-02   3.6578804e-01
   1.3251196e-02  -1.1233860e-02  -5.2655505e-02   2.5102996e-02   1.1022915e-02   7.6842980e-02  -9.3708545e-02   9.4501917e-02   3.0428207e-02   1.3606523e-01  -9.2998545e-02   7.2499618e-03   1.2970247e-01   2.2772182e-02   5.1367382e-02   2.8458892e-01   1.0124278e-03   3.8363306e-01  -9.7007300e-02   3.2035612e-01   1.5433674e-01   6.8293369e-01   3.2081604e-01   2.6109161e-01   1.3503557e-02  -2.1702852e-01
   5.8864473e-03   8.9286562e-03   9.3399989e-03  -3.0110973e-02   1.5806747e-02  -7.4206038e-03   1.3812145e-03  -1.6257759e-02  -4.7634776e-02  -4.4429077e-02  -1.0109747e-01  -3.9410099e-02   8.3616660e-02  -8.7888843e-02  -1.4834109e-01   1.1763315e-01   1.1839035e-01  -6.7011423e-02   5.6452448e-02  -1.7846783e-01  -9.2429974e-02  -1.3976478e-02   6.0714893e-02  -5.0839227e-01  -4.8230838e-02  -2.9471968e-02
  -5.8598229e-03  -5.4654653e-03  -5.2285292e-03   6.7938429e-03   3.6592522e-02  -9.3999400e-03   2.8997846e-02  -5.6121654e-02  -1.1217047e-01   1.6406650e-01   3.1611894e-02   5.7733709e-02  -6.0926899e-03   3.2517723e-02  -1.3662821e-01  -3.1386486e-01  -2.2556583e-01  -2.4221446e-01   9.6536076e-02   2.8110839e-02   3.1714523e-01   3.9479465e-03   2.2003196e-01   1.5439812e-01  -1.7610043e-01   7.4206536e-02
  -1.0203282e-03   7.8674405e-04   2.4256962e-03   1.0728513e-02  -2.9643178e-02  -9.4266654e-03   2.5265281e-02  -2.7068856e-02  -5.7137072e-02  -2.9123700e-02  -2.6782068e-02  -6.1214825e-02  -6.0699085e-02  -6.6194890e-02   5.5007013e-03   7.9857977e-02  -1.1727339e-01  -2.8359229e-02   4.2116646e-03  -3.7382001e-01  -9.5223061e-02   2.1707234e-02   2.5292460e-02   1.3470290e-01   5.2002293e-02  -8.3578910e-02
   1.9024982e-03  -8.8395646e-03  -1.5738477e-02   2.5298056e-02  -2.7289209e-02   4.1402175e-02   1.3093098e-03   4.0065755e-02  -1.5618862e-02  -5.9069455e-02  -9.8945896e-02   2.0165918e-02   5.2345139e-02  -1.1866382e-01  -1.0595309e-01  -9.4014433e-02  -2.3533387e-01  -1.1791000e-01   1.6353902e-02   1.4519653e-01  -1.0747397e-01   2.5621474e-01  -2.0745642e-01  -1.0048447e-01  -2.2463717e-01   1.5394268e-01
   1.1608690e-02  -5.5517890e-03  -2.9972309e-02  -2.2950228e-02  -2.2911505e-03   1.9561599e-02   7.3433197e-02   3.7901801e-02   1.3639205e-02  -2.6437496e-02  -7.1328453e-02  -1.6905000e-02   1.8119316e-02  -4.6163388e-02  -2.1651554e-01  -1.3720067e-01   4.4701576e-02   1.2759364e-01  -1.3204755e-01  -1.3133525e-01   1.8427224e-01   1.0707979e-01   2.1425410e-01  -1.0618592e-01  -1.2303080e-01  -2.4403902e-01
  -5.0197920e-03   1.4908913e-03   9.8291732e-03   1.3552004e-02   6.2250754e-03   2.4216485e-02  -2.4624856e-03  -1.5991755e-02  -8.3965199e-02  -3.1456050e-03  -7.1090452e-02  -1.5528801e-02  -3.0893777e-02  -2.3662865e-02  -9.8466093e-02  -1.6863921e-02  -2.0371767e-02   1.2838783e-02  -5.0869999e-02  -9.2977786e-02   1.2467865e-01   7.3137905e-02  -1.0167844e-01   6.1172611e-02   5.4526844e-02   1.3765721e-01
   1.5294196e-04   6.2491193e-03  -4.6534839e-03  -1.3972800e-03   2.1417924e-05  -2.0975025e-02   1.1883723e-02   3.4655266e-02   3.5185519e-02  -1.1021218e-02  -1.8832398e-02  -8.2434643e-03   3.1551987e-02   2.5106665e-03   7.4078492e-02   2.8980747e-02   2.2449132e-02   4.5962790e-03  -3.1260151e-03  -2.4497445e-02   3.6407286e-02  -1.1255672e-02  -1.1881608e-02  -2.3975770e-02   1.0240094e-01   1.5370666e-01
  -2.4179682e-04   3.6512540e-03  -1.7747255e-03   9.6874734e-03  -5.0954037e-03  -7.5738122e-03   8.0495301e-03   7.4143698e-03  -1.0355318e-02  -2.8935860e-02  -4.1710633e-02  -7.4306005e-02  -7.8398154e-02   8.6944488e-02  -1.2247820e-01   4.3342848e-02   7.1756921e-02   7.7333921e-02   8.3027828e-02   8.7111482e-02   6.6202818e-02  -6.5324898e-02  -8.1195233e-02   3.3904254e-02  -4.9989627e-02   9.3949084e-02
  -3.2167655e-03   7.9627789e-03   9.9577420e-03  -8.2277208e-03   7.8621205e-03  -2.5373011e-02   3.0254383e-02   1.6292733e-02   3.8976224e-02  -1.0682093e-01   6.6870196e-02  -2.0763534e-02  -1.1094938e-01   1.6145185e-01   1.2824353e-01  -1.5191700e-01  -7.8337393e-02  -2.8803638e-02  -1.9519179e-01  -1.6577005e-01  -1.6187075e-01  -3.9058046e-01  -3.8955039e-01  -9.4238284e-02   1.2768309e-03   3.3450265e-01
   1.3774443e-02  -5.7062652e-03  -5.5235354e-02   2.6405542e-02   8.2793182e-03   7.5650900e-02  -1.0479179e-01   9.4261179e-02   5.2258136e-02   9.7871988e-02  -9.6865226e-02  -5.2660109e-03   1.5918482e-01   7.3064626e-02  -5.0640205e-03   3.0203712e-01   5.5399457e-03   3.4785180e-01  -5.8630518e-02   2.8941290e-01   9.0475363e-02   8.1085850e-01   3.3440602e-01   3.2488163e-01   7.4562812e-02  -1.8468836e-01
   5.9159814e-03   7.1718558e-03   9.3032522e-03  -2.7724764e-02   9.1012641e-03  -6.1953748e-03   1.2095935e-02  -1.5523331e-02  -4.4727493e-02  -2.5308876e-02  -8.4596032e-02  -3.5147859e-02   7.3594092e-02  -1.1133837e-01  -1.6465999e-01   1.2019195e-01   1.1893047e-01  -7.3198286e-02   1.4041172e-04  -9.7158875e-02  -6.0181785e-02  -3.5826324e-02   8.8925017e-02  -5.2275104e-01   1.5488471e-02  -1.9012267e-01
  -4.6688591e-03  -7.4824733e-03  -5.2496141e-03   1.4328973e-02   4.1024258e-02  -2.2100779e-03   8.0487153e-03  -2.7880050e-02  -8.8534421e-02   1.4998449e-01   1.9978844e-02   5.2931081e-02  -2.0924395e-02   1.7750342e-02  -1.5210551e-01  -2.9470398e-01  -2.5206806e-01  -1.9479525e-01   9.5083171e-02   1.3268756e-02   3.0572710e-01   2.5370025e-02   2.5676599e-01   4.1086181e-02  -2.1182035e-01   1.4703582e-01
  -5.2745765e-04   1.7779680e-03   3.6351926e-03   9.2691798e-03  -4.0202535e-02  -5.1491937e-03   3.4495159e-02  -2.3740128e-02  -4.9272793e-02  -4.3054450e-02  -2.3950218e-02  -7.8985918e-02  -8.2487052e-02  -8.6242058e-02  -3.4711030e-02   1.7472974e-02  -8.2002012e-02  -5.9736450e-02   1.4667271e-02  -3.3105548e-01  -6.2213573e-02  -1.5128991e-03   9.8841787e-02   1.6535016e-01   1.2636172e-01  -5.4940141e-02
   1.0917698e-03  -8.7945496e-03  -1.6048024e-02   2.4024625e-02  -2.7260399e-02   3.5478224e-02  -1.4129549e-02   2.1804981e-02  -3.0725299e-02  -6.4202342e-02  -8.5960218e-02   5.9296554e-02   5.6471801e-02  -8.1802067e-02  -5.0448375e-02  -8.7140411e-02  -2.2897030e-01  -7.9327175e-02  -2.8500378e-03   7.0333147e-02  -1.0654761e-01   3.2510268e-01  -2.3008947e-01  -1.1196280e-01  -2.8166222e-01   2.3450520e-01
   1.1690752e-02  -5.8319466e-03  -2.8796615e-02  -2.1147825e-02  -3.3580320e-03   1.7771115e-02   6.5178128e-02   3.8160207e-02   1.6872990e-02  -3.8041289e-02  -7.1409231e-02  -3.6884268e-03   2.1267702e-02  -4.1629858e-02  -2.0039328e-01  -1.3198252e-01   4.5495161e-02   1.3319682e-01  -1.4139934e-01  -8.8062992e-02   1.4836166e-01   1.2719486e-01   1.2457850e-01  -1.1442873e-01  -1.3068986e-01  -2.3914458e-01
  -5.1407183e-03   1.5303947e-03   9.9137449e-03   1.0500361e-02   8.0818737e-03   2.5204570e-02  -2.4140094e-03  -4.8992680e-03  -9.7299759e-02  -6.1410919e-03  -6.3442149e-02  -1.7313569e-02  -1.1386971e-02  -2.5419355e-02  -8.3078143e-02   3.6424880e-03  -3.5151119e-02   1.7543306e-02  -7.9131278e-02  -1.2003708e-01   1.1283070e-01   6.3149818e-02  -8.9556898e-02   1.1282702e-02   5.1110237e-02   1.4873756e-01
   1.4406664e-03   7.5410365e-03  -5.1045119e-03  -8.4380085e-04  -1.6627388e-04  -2.5616417e-02   1.4817936e-02   1.7706449e-02   5.5392530e-02  -1.5762026e-02  -3.6265764e-02  -5.0877410e-03   2.9347062e-02  -1.9983904e-03   8.3235557e-02   4.1209483e-03   4.1342193e-02   1.1205054e-03  -4.1815470e-03  -4.3799209e-02   4.2746452e-02   1.5396978e-02   3.8843896e-03  -2.9414875e-03   1.3800441e-01   1.4004639e-01
  -9.0392095e-06   3.0307567e-03  -1.6425035e-03   1.0115292e-02  -4.7297094e-03  -1.1002338e-02   1.1438638e-02   3.3493721e-03  -5.0300888e-03  -2.9156731e-02  -5.0588411e-02  -6.1967785e-02  -8.8244957e-02   1.0691956e-01  -1.3644099e-01   3.0034469e-02   8.9242166e-02   7.6782900e-02   7.6553523e-02   8.0138706e-02   8.7081713e-02  -5.9612853e-02  -4.7887857e-02   7.0687837e-02  -4.4814373e-02   5.9007779e-02
  -2.1596055e-03   6.1064663e-03   1.1740965e-02  -1.0751593e-02   1.7310253e-02  -2.7473916e-02   3.0263237e-02  -3.4884973e-03   3.1705432e-02  -8.6712186e-02   4.7055354e-02  -1.2675315e-02  -9.7696851e-02   1.4400145e-01   1.4736205e-01  -1.6372184e-01  -4.9390698e-02  -3.0317084e-02  -1.7539061e-01  -1.9779121e-01  -1.4834078e-01  -4.0305478e-01  -3.8991576e-01  -9.4062115e-02  -5.5964178e-02   2.8657362e-01
   1.4117436e-02   3.6570756e-04  -5.6478463e-02   2.8033852e-02   7.3613604e-03   7.3535299e-02  -1.1421054e-01   9.1087339e-02   7.5031079e-02   4.5923525e-02  -9.7062834e-02  -2.2913061e-02   1.8998912e-01   1.2299988e-01  -7.1436343e-02   3.1341988e-01   5.9232627e-03   2.9415637e-01  -1.1018701e-02   2.5142463e-01   1.7658702e-02   9.2886338e-01   3.4539572e-01   3.7097330e-01   1.4414244e-01  -1.4832763e-01
   5.8767712e-03   4.8929690e-03   9.0753175e-03  -2.3988080e-02  -3.8913468e-05  -3.5549958e-03   2.3947594e-02  -1.4528667e-02  -3.2325074e-02   1.8243328e-03  -5.6279624e-02  -2.5628274e-02   4.6623689e-02  -1.2923746e-01  -1.7602833e-01   1.1938020e-01   1.1268564e-01  -6.9961110e-02  -7.8832301e-02   3.9646087e-03  -1.0655070e-02  -5.1755159e-02   1.1701633e-01  -4.8406535e-01   9.1225874e-02  -3.6152138e-01
  -3.6896766e-03  -9.6698439e-03  -4.9244057e-03   2.1788658e-02   4.3836548e-02   5.8368089e-03  -1.6181559e-02   3.6709820e-03  -6.1187830e-02   1.3224131e-01   5.5804759e-03   4.9222048e-02  -3.7859240e-02   6.3729192e-04  -1.6645499e-01  -2.5705894e-01  -2.9413959e-01  -1.5824118e-01   9.8358399e-02   1.3893423e-02   3.0749948e-01   5.4348727e-02   3.0467190e-01  -7.8009173e-02  -2.4240822e-01   2.2303902e-01
   1.5668141e-04   3.1141944e-03   4.4880988e-03   7.9501134e-03  -5.2566690e-02  -4.9876038e-03   4.1626140e-02  -1.2444968e-02  -4.1964044e-02  -5.8334181e-02  -2.1336241e-02  -9.3115188e-02  -9.8784118e-02  -1.0869647e-01  -7.0979859e-02  -5.3109304e-02  -4.5986657e-02  -8.6848326e-02   2.5616919e-02  -2.7418004e-01  -4.1286822e-02  -2.1343844e-02   1.8921992e-01   1.8784566e-01   1.8680317e-01  -9.1002188e-04
   5.3922358e-04  -8.2183581e-03  -1.6365503e-02   2.0655878e-02  -2.6288220e-02   2.9732224e-02  -2.7791467e-02   1.2800701e-03  -4.3568316e-02  -6.6762912e-02  -6.7443777e-02   1.0219048e-01   5.6391673e-02  -3.2931161e-02   5.6463267e-03  -7.2305514e-02  -2.1488514e-01  -3.9752807e-02  -2.5064071e-02  -1.2264833e-02  -1.0946483e-01   3.8375840e-01  -2.5118015e-01  -1.3080656e-01  -3.4254092e-01   2.9582182e-01
   1.1402483e-02  -5.8455798e-03  -2.8015115e-02  -1.7156366e-02  -5.5305131e-03   1.5212558e-02   4.9862886e-02   3.7174108e-02   2.4227300e-02  -5.1172909e-02  -6.9738740e-02   5.6995261e-03   2.0420190e-02  -4.8072923e-02  -1.7450256e-01  -1.0432042e-01   4.0775168e-02   1.3573468e-01  -1.5242692e-01  -3.2095357e-02   9.3457858e-02   1.5198852e-01   6.3460191e-03  -1.1364242e-01  -1.2916504e-01  -2.1404976e-01
  -4.3796294e-03   5.6934548e-04   7.5146298e-03   7.5565238e-03   1.1786918e-02   2.3541275e-02  -8.4275698e-03   2.5950318e-03  -9.1107572e-02   7.8650543e-04  -5.2266599e-02  -1.2996141e-02   1.6439392e-02  -5.1404789e-02  -6.0906319e-02   3.9066539e-02  -5.2448497e-02   1.7217250e-02  -9.0659998e-02  -1.4380055e-01   6.0411319e-02   4.3026408e-02  -6.5099140e-02  -5.3109015e-02   1.5000482e-02   1.2076398e-01
   3.0162880e-03   8.2466497e-03  -6.5869378e-03   5.5603273e-04   4.6765777e-04  -3.2015939e-02   1.5336747e-02  -5.0516613e-03   8.2812477e-02  -1.3177949e-02  -5.2671366e-02   5.7263838e-03   2.0517634e-02  -1.4490690e-03   7.7677739e-02  -2.4077719e-02   6.8241778e-02  -2.2443447e-03   1.3349278e-02  -5.8337256e-02   3.9806100e-02   4.3169087e-02   2.9578289e-02   4.1284793e-02   1.5335281e-01   8.9200026e-02
   1.3127902e-03   1.8594471e-03  -2.2210028e-03   8.4099655e-03  -2.1913725e-03  -1.2422127e-02   1.3706105e-02  -1.3971893e-02   2.1456912e-02  -2.4384921e-02  -5.6520148e-02  -4.0191074e-02  -8.3532818e-02   9.3210527e-02  -1.1703247e-01   5.3038846e-03   9.6530779e-02   4.5377090e-02   6.6908404e-02   5.7124765e-02   8.7576082e-02  -3.3836892e-02  -2.6887631e-03   1.0534089e-01  -2.5794735e-02   3.8200473e-03
  -1.5926934e-03   3.4416650e-03   1.2937159e-02  -1.2637497e-02   2.5659047e-02  -2.7563581e-02   2.6323058e-02  -2.4486894e-02   2.0521537e-02  -6.0435456e-02   2.9473524e-02  -4.9247268e-03  -8.0031747e-02   1.1339025e-01   1.6286994e-01  -1.8021424e-01  -1.1130004e-02  -3.0317409e-02  -1.3418045e-01  -2.1895696e-01  -1.3027532e-01  -4.0351748e-01  -3.7476582e-01  -8.1521629e-02  -1.2747555e-01   2.3971351e-01
   1.4045058e-02   6.6360312e-03  -5.6439512e-02   2.9545167e-02   8.1362225e-03   7.1210937e-02  -1.2126576e-01   8.6356282e-02   9.5647629e-02  -1.8359849e-02  -9.2881701e-02  -4.6550792e-02   2.1920901e-01   1.6817515e-01  -1.4342819e-01   3.1757393e-01   2.3138914e-04   2.2231173e-01   4.4977095e-02   2.0993838e-01  -5.7457663e-02   1.0339389e+00   3.5552279e-01   3.9355175e-01   2.2116761e-01  -9.9329547e-02
   5.6312312e-03   2.1162637e-03   8.5999109e-03  -1.8966804e-02  -1.1156496e-02   7.1273712e-04   3.5922487e-02  -1.2925547e-02  -1.2116944e-02   3.6496390e-02  -1.7614176e-02  -1.1857791e-02   2.5220652e-03  -1.4008381e-01  -1.7948366e-01   1.1466643e-01   9.9604598e-02  -5.3196166e-02  -1.7591796e-01   1.1959624e-01   5.5602903e-02  -5.9779981e-02   1.4333539e-01  -3.8963917e-01   1.7328468e-01  -5.2411159e-01
  -2.9190595e-03  -1.2024330e-02  -4.1900953e-03   2.9048020e-02   4.5049943e-02   1.4323242e-02  -4.2542213e-02   3.6035145e-02  -3.2544154e-02   1.1300215e-01  -1.2039119e-02   4.6832541e-02  -5.4498679e-02  -1.7893736e-02  -1.7743094e-01  -2.0233303e-01  -3.4791638e-01  -1.3116490e-01   1.0632701e-01   2.9486448e-02   3.2166691e-01   9.0675545e-02   3.5877731e-01  -1.9573128e-01  -2.6401167e-01   3.0198437e-01
   1.0987864e-03   4.5202499e-03   4.7647211e-03   6.9762644e-03  -6.5791910e-02  -9.1881183e-03   4.5718272e-02   6.2021192e-03  -3.5507542e-02  -7.3371228e-02  -2.0011313e-02  -1.0219869e-01  -1.0881581e-01  -1.3279329e-01  -1.0233252e-01  -1.2486593e-01  -1.1531875e-02  -1.0540272e-01   3.6753212e-02  -2.0535611e-01  -3.5667015e-02  -3.7682374e-02   2.9569188e-01   1.9564216e-01   2.2347337e-01   7.3961424e-02
   2.3835664e-04  -7.1544528e-03  -1.6209389e-02   1.5542428e-02  -2.4426511e-02   2.5416047e-02  -3.7563616e-02  -2.0035767e-02  -5.4854336e-02  -6.7372628e-02  -4.6963325e-02   1.4418899e-01   5.1931409e-02   2.4840397e-02   5.7028196e-02  -5.1603049e-02  -1.9520572e-01  -1.6475036e-03  -5.0654756e-02  -9.6363604e-02  -1.1143028e-01   4.2959656e-01  -2.6926322e-01  -1.5673709e-01  -3.9819208e-01   3.3371319e-01
   1.0756643e-02  -5.7304942e-03  -2.7530143e-02  -1.1039895e-02  -8.8317291e-03   1.1627368e-02   2.8190905e-02   3.4823439e-02   3.4662095e-02  -6.5915745e-02  -6.6433364e-02   1.0070641e-02   1.4573760e-02  -6.4350003e-02  -1.4056813e-01  -5.5883724e-02   3.0099271e-02   1.3577967e-01  -1.6523137e-01   3.0757490e-02   2.2432472e-02   1.8006411e-01  -1.3156874e-01  -9.9869913e-02  -1.1784867e-01  -1.7647220e-01
  -2.7182391e-03  -1.3534002e-03   2.6305865e-03   5.3631319e-03   1.6714849e-02   1.8363534e-02  -2.0242431e-02   3.1203013e-03  -6.3692509e-02   1.8112008e-02  -3.9483097e-02  -3.6126353e-03   4.7625304e-02  -9.9548955e-02  -3.8681444e-02   8.0820620e-02  -6.4005714e-02   1.1365643e-02  -7.8171045e-02  -1.6170348e-01  -2.8754080e-02   1.8127213e-02  -2.8834862e-02  -1.1183443e-01  -5.1820181e-02   5.3402745e-02
   4.5565723e-03   8.0102104e-03  -9.3367969e-03   2.7314044e-03   1.5768575e-03  -4.0622967e-02   1.2119087e-02  -2.8316193e-02   1.1315598e-01  -3.2939646e-03  -6.4633228e-02   2.3764237e-02   6.1670499e-03   4.9268162e-03   5.2661366e-02  -4.6369184e-02   9.9454512e-02  -1.9374820e-03   5.0941200e-02  -6.5156638e-02   1.7906860e-02   6.0366402e-02   6.4268870e-02   9.9280217e-02   1.3034098e-01   3.2597064e-03
   3.5295137e-03   5.7063386e-04  -3.2949967e-03   4.4616276e-03   2.0301939e-03  -1.0816468e-02   1.4163707e-02  -4.3136713e-02   6.4804057e-02  -1.6162777e-02  -5.7014620e-02  -1.3514030e-02  -6.3170215e-02   4.4056354e-02  -6.3737900e-02  -3.2156937e-02   9.1275493e-02  -1.6960026e-02   5.5515804e-02   1.8429535e-02   6.5503785e-02   1.3375070e-02   4.0386267e-02   1.3334026e-01   9.4499935e-03  -5.8064140e-02
  -1.5815705e-03   1.4223125e-04   1.3261194e-02  -1.3353095e-02   3.2571195e-02  -2.4650768e-02   1.7612601e-02  -4.4286170e-02   3.7241785e-03  -2.6496911e-02   1.5186506e-02   1.9252135e-03  -6.0049373e-02   7.0355951e-02   1.7934759e-01  -1.9977166e-01   3.0012083e-02  -2.0627802e-02  -7.0065497e-02  -2.2778158e-01  -1.0371521e-01  -3.9073976e-01  -3.4658712e-01  -5.8007049e-02  -2.0813298e-01   2.1027260e-01
   1.3382295e-02   1.2675339e-02  -5.5231375e-02   3.0523490e-02   1.0521994e-02   6.9267005e-02  -1.2518124e-01   8.1378529e-02   1.1060421e-01  -9.1599216e-02  -8.4401576e-02  -7.5812865e-02   2.4355077e-01   2.0399544e-01  -2.1335098e-01   3.1360401e-01  -1.3643591e-02   1.3638557e-01   1.0904508e-01   1.6771209e-01  -1.2621594e-01   1.1202666e+00   3.6494867e-01   3.8892221e-01   3.0303460e-01  -2.9768161e-02
   5.0780746e-03  -1.1014093e-03   7.8848984e-03  -1.2824980e-02  -2.3352531e-02   6.6479778e-03   4.6734411e-02  -1.0499163e-02   1.2791765e-02   7.7982797e-02   2.8034861e-02   5.2289036e-03  -5.6409892e-02  -1.4321853e-01  -1.7073382e-01   1.0582640e-01   7.9590300e-02  -1.8195598e-02  -2.8259791e-01   2.4187089e-01   1.3664623e-01  -5.9608932e-02   1.6579412e-01  -2.4179123e-01   2.5407311e-01  -6.5792976e-01
  -2.2949303e-03  -1.4475684e-02  -2.9285733e-03   3.5943953e-02   4.4885745e-02   2.2584249e-02  -6.9546315e-02   6.5855423e-02  -5.2170607e-03   9.5192224e-02  -3.3336904e-02   4.6261987e-02  -6.7685325e-02  -3.7061124e-02  -1.8243146e-01  -1.3361365e-01  -4.0669987e-01  -1.0988961e-01   1.1845486e-01   5.7090286e-02   3.4493668e-01   1.3259123e-01   4.1247693e-01  -3.0402103e-01  -2.7320859e-01   3.8240840e-01
   2.3133810e-03   5.6411649e-03   4.3535589e-03   6.6212593e-03  -7.8521677e-02  -1.7373762e-02   4.5972159e-02   3.0247131e-02  -2.9744975e-02  -8.5998546e-02  -2.0629811e-02  -1.0512547e-01  -1.1289846e-01  -1.5676069e-01  -1.2911624e-01  -1.8959319e-01   1.9448995e-02  -1.1175511e-01   4.8247239e-02  -1.2678352e-01  -4.6505148e-02  -5.0970847e-02   4.1378772e-01   1.8432968e-01   2.2716621e-01   1.6043778e-01
   1.6800775e-04  -5.6996685e-03  -1.5133533e-02   9.2781876e-03  -2.1863662e-02   2.3800971e-02  -4.1421076e-02  -4.0225183e-02  -6.5544772e-02  -6.6775824e-02  -2.9003472e-02   1.7959978e-01   4.3399265e-02   8.5871580e-02   9.8166020e-02  -2.7980445e-02  -1.7316563e-01   3.2812126e-02  -7.9434042e-02  -1.7510101e-01  -1.0688792e-01   4.5983703e-01  -2.8257591e-01  -1.8845402e-01  -4.3763525e-01   3.4610849e-01
   9.7879238e-03  -5.6831381e-03  -2.7247998e-02  -3.2107076e-03  -1.3276084e-02   7.1904759e-03   2.0027860e-03   3.1648262e-02   4.6271453e-02  -8.1762351e-02  -6.1894507e-02   9.1076003e-03   3.1280307e-03  -8.8053890e-02  -1.0201191e-01   8.6069709e-03   1.2427004e-02   1.3346763e-01  -1.7886930e-01   9.3645067e-02  -5.9682965e-02   2.0861928e-01  -2.7661496e-01  -7.0302891e-02  -9.6883095e-02  -1.3602744e-01
  -4.1517708e-04  -3.9207602e-03  -3.8852401e-03   4.6854371e-03   2.1475426e-02   9.6471036e-03  -3.4983578e-02  -4.7461290e-03  -1.8530573e-02   4.2962875e-02  -2.9032059e-02   6.8599484e-03   7.3663235e-02  -1.5999611e-01  -2.6355212e-02   1.1737078e-01  -6.1643474e-02   1.9710551e-03  -4.0874316e-02  -1.6741123e-01  -1.3664292e-01  -6.6404330e-03   1.6012176e-02  -1.4240417e-01  -1.3570914e-01  -4.1965368e-02
   5.6590750e-03   6.7183672e-03  -1.3262830e-02   5.1622557e-03   2.7672054e-03  -5.0872559e-02   4.5612313e-03  -4.4984624e-02   1.3945385e-01   1.2032789e-02  -6.7969981e-02   4.7137364e-02  -1.0516899e-02   1.5276544e-02   8.7906537e-03  -5.4103013e-02   1.2795637e-01   3.6766826e-03   1.0442657e-01  -6.5931146e-02  -3.0343681e-02   5.7185301e-02   1.0314975e-01   1.5366096e-01   5.8616357e-02  -1.0489971e-01
   6.0611111e-03  -4.1265084e-04  -4.3684736e-03  -1.1846094e-03   6.9041766e-03  -5.6020746e-03   1.2511651e-02  -7.7704369e-02   1.1321977e-01  -7.2103717e-03  -5.0692227e-02   1.1552542e-02  -3.0073977e-02  -3.1316106e-02   1.4626022e-02  -7.8297779e-02   7.2347692e-02  -1.0020797e-01   4.3151047e-02  -2.9996669e-02   2.6075346e-02   7.5280061e-02   6.5775711e-02   1.4807765e-01   5.8991876e-02  -1.1010286e-01
  -2.0388584e-03  -3.6006933e-03   1.2513879e-02  -1.2262538e-02   3.7991917e-02  -1.8016655e-02   3.7119621e-03  -6.0817107e-02  -1.9643304e-02   1.7506654e-02   4.1447419e-03   8.0896699e-03  -3.9473348e-02   1.6503552e-02   2.0264496e-01  -2.1909844e-01   6.6536103e-02   8.8605555e-03   1.7550002e-02  -2.2389945e-01  -6.3129414e-02  -3.6506364e-01  -3.0804366e-01  -2.3488551e-02  -2.9155170e-01   2.0819255e-01
