  -5.3449397e-02   9.0806010e-02
  -4.9171461e-02  -2.1071168e-02
  -1.4386201e-02   7.1402440e-03
  -5.2733461e-02  -4.2231518e-02
   3.9383533e-02   3.2644458e-03
   7.5733206e-02   3.0353427e-02
   2.0989160e-01   1.6392254e-01
   3.6629415e-02  -3.8625017e-02
   8.0595127e-02  -1.2676793e-01
  -2.6003636e-02  -1.1688125e-02
  -3.5722759e-02   6.1487005e-02
  -4.1218135e-02  -1.1444270e-02
  -1.0800877e-02   3.1200074e-03
  -1.0215406e-02  -1.5729204e-02
   2.1410784e-02  -4.7625898e-04
   9.3302324e-03   1.0586957e-02
   1.3525409e-01   1.4374389e-01
   9.8774312e-03  -1.1067556e-02
   4.6600075e-02  -8.1040755e-02
  -2.8485977e-03   1.7402027e-03
  -2.2403719e-02   3.7354492e-02
  -3.4704916e-02  -4.3729154e-03
  -5.1128562e-03   1.1728490e-04
   1.4102362e-02   2.1717700e-03
   1.4489347e-03   1.7540106e-03
  -2.0785989e-02  -1.7206707e-03
   7.6044936e-02   1.1940888e-01
  -5.0491330e-03   7.2824888e-03
   2.2065561e-02  -4.7421341e-02
   9.0248438e-03   7.3874137e-03
  -1.2321721e-02   1.8380456e-02
  -2.9280780e-02   8.5887650e-04
   1.2465048e-03  -2.0470773e-03
   2.4721095e-02   1.1969192e-02
  -1.4535779e-02   6.1633988e-03
  -2.7409746e-02  -7.2819740e-03
   3.1190378e-02   9.3009746e-02
  -1.1533160e-02   1.6843852e-02
   5.4937085e-03  -2.4543929e-02
   1.2648990e-02   7.9095203e-03
  -4.4899623e-03   4.4065675e-03
  -2.4715080e-02   4.8806887e-03
   7.0842371e-03  -3.5709709e-03
   2.6233880e-02   1.5103036e-02
  -2.3244231e-02   1.0385228e-02
  -2.1593824e-02  -7.6791804e-03
  -7.8437441e-04   6.6899515e-02
  -1.2640148e-02   1.9144780e-02
  -4.7072708e-03  -1.0507880e-02
   1.0969799e-02   5.6719664e-03
   1.6204247e-03  -4.9185410e-03
  -2.0810210e-02   8.1867119e-03
   1.1527721e-02  -4.6438099e-03
   2.2634323e-02   1.3451486e-02
  -2.4362960e-02   1.3180642e-02
  -1.1321605e-02  -4.8139138e-03
  -2.1551698e-02   4.3293056e-02
  -1.0774026e-02   1.6391398e-02
  -1.0071231e-02  -3.1793164e-03
   6.5288498e-03   2.5705133e-03
   6.1473581e-03  -1.0160375e-02
  -1.7388727e-02   1.1113346e-02
   1.4066847e-02  -5.4249242e-03
   1.7039996e-02   8.9105520e-03
  -1.9710913e-02   1.4139620e-02
  -1.4803181e-03  -4.8832229e-04
  -3.2856308e-02   2.3897932e-02
  -7.6196138e-03   1.0961312e-02
  -1.1963993e-02  -4.9768803e-04
   1.3083329e-03  -8.4035815e-05
   9.0391275e-03  -1.2071120e-02
  -1.4308691e-02   1.3838182e-02
   1.4553759e-02  -6.0312429e-03
   1.1640343e-02   3.1216248e-03
  -1.2056066e-02   1.3408551e-02
   5.5535963e-03   3.8436603e-03
  -3.6449391e-02   9.6590053e-03
  -4.2345189e-03   4.9413755e-03
  -1.1520549e-02  -7.2393129e-04
  -3.3097249e-03  -1.5993726e-03
   1.0253080e-02  -1.1522690e-02
  -1.1477161e-02   1.6393552e-02
   1.3162492e-02  -6.5358010e-03
   7.7536096e-03  -2.6491539e-03
  -4.0952812e-03   1.1446149e-02
   9.1552847e-03   7.1799570e-03
  -3.4061129e-02   6.7216376e-04
  -1.2015988e-03  -1.9223226e-04
  -9.6283447e-03  -2.5842863e-03
  -6.5111145e-03  -1.8491366e-03
   9.8842067e-03  -9.4158012e-03
  -8.8487257e-03   1.8689049e-02
   1.0315663e-02  -6.9744571e-03
   5.9407210e-03  -7.5242401e-03
   2.1919486e-03   8.8144358e-03
   9.7494769e-03   8.9719775e-03
  -2.7389681e-02  -3.7203347e-03
   1.2115649e-03  -3.7019822e-03
  -6.9472067e-03  -5.2922890e-03
  -7.9737247e-03  -1.1428713e-03
   8.2085579e-03  -6.5817394e-03
  -6.4095545e-03   2.0541146e-02
   6.5894312e-03  -7.3559783e-03
   6.1608831e-03  -1.0982213e-02
   5.7949232e-03   6.0227580e-03
   8.2562400e-03   9.0642825e-03
  -1.8086271e-02  -4.6852332e-03
   2.9154635e-03  -5.5269076e-03
  -3.9505676e-03  -8.4619173e-03
  -7.7676610e-03  -4.0311264e-05
   5.6567423e-03  -3.6946925e-03
  -4.1554683e-03   2.1711476e-02
   2.6102486e-03  -7.6710086e-03
   7.9575802e-03  -1.2817266e-02
   6.6115316e-03   3.4381131e-03
   5.6977776e-03   7.6082562e-03
  -7.7213646e-03  -3.5717125e-03
   3.8986867e-03  -6.0762622e-03
  -9.7128208e-04  -1.1949882e-02
  -6.2430360e-03   8.5515482e-04
   2.7439577e-03  -1.2124800e-03
  -2.0736902e-03   2.1954628e-02
  -1.0422014e-03  -7.8987453e-03
   1.0651114e-02  -1.3094323e-02
   5.1983937e-03   1.2574264e-03
   2.9506886e-03   4.9772944e-03
   2.2745836e-03  -1.5872976e-03
   4.1720705e-03  -5.9552184e-03
   1.7613652e-03  -1.5678744e-02
  -3.9149761e-03   1.0839231e-03
  -1.6518483e-05   6.4249103e-04
  -1.3411274e-04   2.1071069e-02
  -3.9131351e-03  -8.0123755e-03
   1.3509749e-02  -1.2092771e-02
   2.4511887e-03  -4.7519427e-04
   6.2291454e-04   1.6893162e-03
   1.0692058e-02   4.4392825e-04
   3.7560276e-03  -5.7083221e-03
   4.1004135e-03  -1.9492719e-02
  -1.3548923e-03   4.6227242e-04
  -2.1927111e-03   1.8593502e-03
   1.7091658e-03   1.8955074e-02
  -5.7227377e-03  -7.9841346e-03
   1.5882240e-02  -1.0241594e-02
  -6.9093073e-04  -1.8218979e-03
  -9.7098634e-04  -1.6731792e-03
   1.6631564e-02   2.1860368e-03
   2.7004369e-03  -5.6496989e-03
   5.9754905e-03  -2.3085545e-02
   9.0483862e-04  -8.6782029e-04
  -3.4900499e-03   2.5786637e-03
   3.5084588e-03   1.5627321e-02
  -6.3832744e-03  -7.7913203e-03
   1.7289301e-02  -8.0575569e-03
  -3.4613677e-03  -2.8858865e-03
  -1.7703265e-03  -4.5429381e-03
   1.9580648e-02   3.7436694e-03
   1.1184652e-03  -5.8111648e-03
   7.3958711e-03  -2.6016670e-02
   2.4474281e-03  -2.4817941e-03
  -3.7780347e-03   3.0116971e-03
   5.3077861e-03   1.1247912e-02
  -5.9843348e-03  -7.4225223e-03
   1.7479096e-02  -6.0906099e-03
  -5.3811091e-03  -3.7456692e-03
  -1.8932853e-03  -6.4442732e-03
   1.9456832e-02   5.4900911e-03
  -7.8671319e-04  -5.9982295e-03
   8.4515661e-03  -2.7804275e-02
   3.0259745e-03  -3.7996870e-03
  -3.0879442e-03   3.3568582e-03
   7.1246659e-03   6.1105210e-03
  -4.7533872e-03  -6.8806230e-03
   1.6449401e-02  -4.8610645e-03
  -6.2771049e-03  -4.4088664e-03
  -1.5487996e-03  -7.0663456e-03
   1.6598700e-02   7.8323771e-03
  -2.7193833e-03  -5.9158038e-03
   9.3016067e-03  -2.8060255e-02
   2.5922887e-03  -4.2651136e-03
  -1.5866406e-03   3.7288578e-03
   8.9311961e-03   6.1830174e-04
  -3.0014600e-03  -6.1823186e-03
   1.4433275e-02  -4.7685336e-03
  -6.2269401e-03  -4.8004066e-03
  -9.5838271e-04  -6.3142994e-03
   1.1697474e-02   1.0989520e-02
  -4.3215773e-03  -5.3122885e-03
   1.0143084e-02  -2.6620633e-02
   1.2962592e-03  -3.5232400e-03
   4.6432744e-04   4.1141608e-03
   1.0639296e-02  -4.7587890e-03
  -1.0644483e-03  -5.3566826e-03
   1.1846080e-02  -5.9801529e-03
  -5.4636894e-03  -4.7904595e-03
  -3.0066474e-04  -4.3204143e-03
   5.6750145e-03   1.4851171e-02
  -5.2334292e-03  -4.0925459e-03
   1.1161992e-02  -2.3627966e-02
  -5.4559928e-04  -1.5433692e-03
   2.7542998e-03   4.3640277e-03
   1.2096290e-02  -9.5446130e-03
   7.5039684e-04  -4.4451555e-03
   9.2005837e-03  -8.3400180e-03
  -4.2758319e-03  -4.2502246e-03
   3.2147829e-04  -1.4245364e-03
  -4.7252877e-04   1.8957232e-02
  -5.1701758e-03  -2.3655438e-03
   1.2474563e-02  -1.9536778e-02
  -2.5077218e-03   1.3501796e-03
   4.9660917e-03   4.2314161e-03
   1.3095474e-02  -1.3329278e-02
   2.2058751e-03  -3.5050180e-03
   7.0082621e-03  -1.1354500e-02
  -2.9283866e-03  -3.1116835e-03
   8.8783632e-04   1.8704985e-03
  -5.8373064e-03   2.2600595e-02
  -3.9966932e-03  -4.1314259e-04
   1.4073373e-02  -1.5035140e-02
  -4.1291235e-03   4.5479542e-03
   6.8108016e-03   3.4485010e-03
   1.3402074e-02  -1.5839027e-02
   3.1594212e-03  -2.6156200e-03
   5.6877747e-03  -1.4284368e-02
  -1.6189150e-03  -1.4097632e-03
   1.4385314e-03   4.9725632e-03
  -9.7387373e-03   2.5019154e-02
  -1.7794054e-03   1.4094120e-03
   1.5794463e-02  -1.0900092e-02
  -4.9906886e-03   7.3065286e-03
   8.0535831e-03   1.8276222e-03
   1.2791054e-02  -1.6986190e-02
   3.5683110e-03  -1.8832151e-03
   5.4914878e-03  -1.6322248e-02
  -4.6949876e-04   7.0549996e-04
   2.0319785e-03   7.2892843e-03
  -1.1814567e-02   2.5617892e-02
   1.2014339e-03   2.8047082e-03
   1.7318623e-02  -7.8231441e-03
  -4.7852348e-03   8.9422921e-03
   8.5312633e-03  -6.4246946e-04
   1.1092097e-02  -1.6888489e-02
   3.4766769e-03  -1.4411521e-03
   6.4515276e-03  -1.6797994e-02
   4.5353050e-04   2.9897525e-03
   2.6983572e-03   8.3179689e-03
  -1.2050412e-02   2.4153222e-02
   4.4867965e-03   3.6469424e-03
   1.8212729e-02  -6.2498638e-03
  -3.3718735e-03   9.0197698e-03
   8.1629371e-03  -3.7335401e-03
   8.2372659e-03  -1.5856802e-02
   2.9893122e-03  -1.4448102e-03
   8.3506596e-03  -1.5363489e-02
   1.1081721e-03   5.1470623e-03
   3.4040118e-03   7.7296330e-03
  -1.0747111e-02   2.0822113e-02
   7.5176384e-03   4.0319236e-03
   1.8008433e-02  -6.2746886e-03
  -8.0813562e-04   7.4864188e-03
   6.9556514e-03  -6.9713271e-03
   4.3054964e-03  -1.4353850e-02
   2.2386506e-03  -2.0598583e-03
   1.0730461e-02  -1.2128195e-02
   1.4511242e-03   6.8764500e-03
   4.0364286e-03   5.4456719e-03
  -8.4377624e-03   1.6226677e-02
   9.7425930e-03   4.2376067e-03
   1.6307492e-02  -7.6187628e-03
   2.6440403e-03   4.7177303e-03
   5.0064876e-03  -9.6978409e-03
  -4.4381644e-04  -1.2925256e-02
   1.3507276e-03  -3.4399239e-03
   1.2947684e-02  -7.7149917e-03
   1.4311350e-03   7.9023693e-03
   4.4111885e-03   1.7107875e-03
  -5.7754191e-03   1.1222743e-02
   1.0731142e-02   4.6050654e-03
   1.2896717e-02  -9.6966159e-03
   6.5389204e-03   1.4573148e-03
   2.5017218e-03  -1.1202023e-02
  -5.5558763e-03  -1.2107917e-02
   4.1533588e-04  -5.6916410e-03
   1.4282875e-02  -3.2016207e-03
   1.0086023e-03   7.9729018e-03
   4.3034416e-03  -2.8564504e-03
  -3.4161779e-03   6.6964925e-03
   1.0266685e-02   5.3814864e-03
   7.8524582e-03  -1.1753238e-02
   1.0291959e-02  -1.3392396e-03
  -2.8508782e-04  -1.0904941e-02
  -1.0390721e-02  -1.2328269e-02
  -5.3527631e-04  -8.8296134e-03
   1.4095335e-02   7.4885009e-05
   1.9897014e-04   6.8340260e-03
   3.5012061e-03  -7.2670087e-03
  -1.9199228e-03   3.3350539e-03
   8.3980770e-03   6.5833759e-03
   1.6155775e-03  -1.3034135e-02
   1.3246481e-02  -2.7280698e-03
  -2.9936793e-03  -8.5689834e-03
  -1.4162705e-02  -1.3810433e-02
  -1.5367090e-03  -1.2726387e-02
   1.2007113e-02   8.4047219e-04
  -8.7205575e-04   4.2164274e-03
   1.8714546e-03  -1.0252712e-02
  -1.6831442e-03   1.4583782e-03
   5.4374863e-03   7.9356752e-03
  -4.9769360e-03  -1.2942813e-02
   1.4760070e-02  -2.0278070e-03
  -5.1756574e-03  -4.4833652e-03
  -1.6008670e-02  -1.6518607e-02
  -2.6907709e-03  -1.7064855e-02
   8.0894222e-03  -1.7220302e-03
  -1.9247604e-03  -1.0676619e-04
  -5.6616076e-04  -1.0484384e-02
  -2.9072830e-03   9.6101527e-04
   1.9061112e-03   8.9189979e-03
  -1.0709306e-02  -1.1145581e-02
   1.4308140e-02   9.4805219e-04
  -6.2948336e-03   4.3777115e-04
  -1.5078961e-02  -2.0155940e-02
  -4.1514750e-03  -2.1303579e-02
   3.0189366e-03  -7.5918619e-03
  -2.5249159e-03  -6.1257699e-03
  -3.5580237e-03  -6.9486336e-03
  -5.5954784e-03   1.3794281e-03
  -1.5558875e-03   8.9167618e-03
  -1.4049873e-02  -7.6001862e-03
   1.1598723e-02   5.7245928e-03
  -5.7383744e-03   4.7158536e-03
  -1.0641097e-02  -2.4233295e-02
  -6.1002461e-03  -2.4662633e-02
  -1.8339929e-03  -1.5611787e-02
  -2.1548614e-03  -1.3222414e-02
  -6.5258746e-03   5.0532257e-04
  -9.5638608e-03   2.0631080e-03
  -4.2898978e-03   7.4157391e-03
  -1.3249052e-02  -2.5067817e-03
   6.6876166e-03   1.1107040e-02
  -2.8519870e-03   6.5811846e-03
  -2.1817970e-03  -2.8211061e-02
  -8.7146114e-03  -2.6131189e-02
  -4.4285280e-03  -2.3293139e-02
  -3.7181260e-04  -1.9642287e-02
  -8.4633705e-03   1.0484754e-02
  -1.4452349e-02   2.3973573e-03
  -5.7035277e-03   4.1936873e-03
  -6.4580359e-03   3.7992587e-03
   7.8641877e-05   1.5255022e-02
   2.9865799e-03   4.4626594e-03
   1.0510404e-02  -3.1705807e-02
  -1.2134514e-02  -2.4498469e-02
  -2.2211331e-03  -2.6728706e-02
   2.9510894e-03  -2.1928641e-02
  -7.8202650e-03   1.9365982e-02
  -1.9724100e-02   2.0111433e-03
  -5.3187749e-03  -5.6803694e-04
   8.1464051e-03   1.0978074e-02
  -7.2093982e-03   1.5886003e-02
   1.2247966e-02  -2.3919904e-03
   2.7299658e-02  -3.4733342e-02
  -1.6429479e-02  -1.8411087e-02
   7.5231131e-03  -2.0672030e-02
   7.3359984e-03  -1.4562916e-02
  -2.3872091e-03   2.0852368e-02
  -2.4650859e-02   9.1036101e-04
  -2.7750836e-03  -6.2737624e-03
   3.2243122e-02   1.8799425e-02
  -1.3627404e-02   1.0568112e-02
   2.5096007e-02  -1.3377841e-02
   4.7705603e-02  -3.7922725e-02
  -2.1570380e-02  -6.4542714e-03
   2.7323339e-02   1.0712032e-03
   1.1437191e-02   9.8109297e-03
   1.0771992e-02   6.1905571e-03
  -2.8291589e-02  -4.9352008e-04
   2.2059504e-03  -1.1971441e-02
   6.7261133e-02   2.7206713e-02
  -1.7146568e-02  -2.9767205e-03
   4.1239508e-02  -2.6433769e-02
   7.0950349e-02  -4.2582702e-02
  -2.7410299e-02   1.2753808e-02
   5.9072627e-02   4.4734708e-02
   1.2925197e-02   5.9094241e-02
   3.5244177e-02  -3.4402899e-02
  -2.9481913e-02  -1.4429027e-03
   9.8698996e-03  -1.6374615e-02
   1.1428987e-01   3.6313029e-02
  -1.5377508e-02  -2.6681232e-02
