  -5.5383493e-03   1.2342066e-03  -6.0473555e-02  -1.8516384e-02   1.3882333e-02  -3.3452042e-01  -1.7404448e-01  -1.2219621e-01   5.3680308e-02   1.4635791e-01   3.8370001e-01  -4.8327242e-02   5.3141433e-01  -7.2775827e-01  -3.7975857e-02  -5.4379927e-01  -9.4945716e-01   2.9819351e-01   4.6231347e-01   8.9093395e-01   1.3616037e+00  -3.8639782e-01  -9.7878443e-01  -4.5632085e-01   1.5791739e+00  -1.2323153e+00   1.0554195e+00   8.1301566e-01   7.9225163e-01
  -4.1293286e-02   1.0334411e-01   1.6830999e-01   6.5972272e-02  -3.0337405e-01   3.4258904e-01  -2.6197413e-01   5.8357340e-02  -3.4214589e-01   3.8073032e-01   4.7482383e-02   5.4013888e-01  -1.9259862e-01  -2.4345431e-01  -4.7351015e-01   2.3378538e-01   1.7814921e+00  -4.6021068e-01   7.4030544e-01   1.2004173e-01   2.0703566e+00   6.9929315e-01  -4.7832268e-01   3.0548715e-01   3.6408208e-01   9.7196396e-03  -5.5933255e-01   2.3342741e+00   2.0692924e+00
   3.8162501e-02   3.6112338e-02  -1.0470568e-01   1.7012267e-01   6.6934002e-02   2.1920983e-01   5.2529734e-01   1.7717037e-01   6.7884834e-02   3.8550978e-01  -4.9896099e-01   4.2371279e-01  -2.4938248e-01  -3.5164626e-01  -2.9474512e-01  -6.9776278e-01  -1.2206030e-01  -1.2052704e-01  -1.1839204e+00  -1.2775888e+00  -1.0432509e-01   3.8888870e-02  -6.6792758e-01   1.1682583e+00   8.2317481e-02  -9.9271613e-02  -1.0121478e-01   1.4428477e+00   1.0967216e+00
   9.1280202e-02   2.4953171e-02   1.7755382e-02  -7.1028670e-02   6.9510412e-02   2.6346752e-02  -6.4078287e-02  -1.7414890e-01   2.4238364e-02  -5.2908904e-02   2.3002568e-01   6.2832604e-01  -3.5653395e-01   4.9393058e-01   2.3245336e-01   9.0974029e-01   5.8179715e-01  -1.2939973e+00  -2.7227087e-01  -3.1043916e-01   6.6368908e-01  -1.2398064e+00  -7.2349550e-01  -1.1239360e+00  -1.3586332e+00   5.5008142e-01   1.2710187e+00  -7.7829837e-01   8.0376352e-01
   8.1150702e-02  -1.2289208e-02   5.0173489e-02  -1.3809815e-01   3.4611258e-02   2.4593882e-02   5.3908794e-02   4.2345670e-01   2.9658791e-01   1.4976801e-01  -3.9101729e-01   2.9939836e-01   2.9356867e-01   3.0077595e-01   6.8301063e-01  -4.2366618e-01  -4.1730595e-01  -2.8183752e-02  -4.4770722e-01  -8.8065370e-01  -5.1652112e-01  -6.9240703e-01   8.9734992e-01  -6.8356976e-01   3.8587415e-01   7.0401088e-01   1.3566524e+00   6.9814217e-01   6.4746667e-01
  -6.6043613e-02   3.0593721e-02  -3.2950948e-03  -9.2557074e-02  -1.4448483e-01   1.7612526e-01   6.3906696e-03  -5.0170510e-01   9.2416436e-01  -1.1842888e-02  -4.8545539e-02  -8.0685237e-01  -5.8292333e-01  -4.7941149e-01   3.2603499e-02   6.3720985e-02   3.4742282e-01   8.4620389e-01  -6.5066977e-01   8.4751823e-01   5.1783279e-01  -2.5452828e-01   1.2294105e+00   8.4399869e-02  -1.3422453e-01   1.6409736e+00   3.2554799e-01   1.3702069e+00   8.4400236e-01
  -6.1414030e-02  -2.9934031e-02   8.0574398e-02   8.0526574e-02   1.9415792e-01   2.0424604e-02   7.2221268e-02   8.8160721e-01   7.1512959e-02   2.2460990e-01   1.0275695e-01  -8.0548973e-01  -1.1791726e+00   3.0296512e-02  -1.1355965e+00  -6.3874859e-01  -9.7765347e-01   1.1860797e+00   3.3734795e-01  -2.3162715e+00   3.8692203e-01  -2.3383435e+00   4.4455397e-01  -1.5070960e-01   1.2696511e-01  -1.3878713e+00  -5.5486155e-01  -3.3220107e-01   5.8908289e-01
  -6.7901765e-02   7.4180584e-02   1.1470947e-02  -4.7751337e-01   1.1631964e-01  -8.9113611e-02   1.6934113e-01  -1.6180445e-01   2.4319687e-01   6.9556087e-01  -4.4475772e-01   2.7963725e-01  -1.7272611e-01  -3.7174352e-01  -3.1840845e-01   6.7829818e-01  -2.4262373e-01  -3.3221590e-01   1.4344492e-01  -1.4656522e-02  -5.3997014e-01   1.2969192e+00   6.4211855e-01   1.5077537e+00   5.6059738e-01  -1.8507437e-02  -1.0807938e+00   1.6613810e+00  -1.1605570e+00
   1.7877979e-02   1.4326372e-01   1.8359488e-03  -6.3492783e-02   1.2587259e-01   3.9071466e-01   7.2966806e-02  -5.3026398e-01   1.5903830e-01   1.2586564e-01   1.2065121e+00   9.3896573e-01   1.3630395e+00   9.4769124e-01   6.2659596e-01  -5.6650978e-01  -1.1257893e-01  -7.2505165e-01  -4.3995562e-01   4.6057817e-01   8.0000909e-01  -8.8213975e-01   1.3215722e+00  -8.6977788e-01  -1.1076277e+00   2.1610995e-01  -9.3472101e-01  -1.7092479e+00   5.9186672e-01
  -1.2148210e-02  -2.4860598e-02   6.2922763e-03   6.6277356e-02  -2.6849827e-01  -2.6422502e-01   1.2001558e-01  -2.0722976e-02  -5.6625521e-01  -3.8322525e-01   1.5982503e-01   5.6679064e-01   2.9960599e-01  -1.1799051e-01  -4.7896663e-01   9.2723178e-01   1.6315832e-01   1.3169515e+00  -3.8817206e-01  -1.5942441e+00  -2.1908698e-01   2.4104274e+00   5.5353892e-01  -1.1104238e+00  -6.3784705e-01   5.8738386e-02   1.3634595e+00   7.0774503e-01  -1.1076760e+00
  -7.4003114e-03  -9.5308126e-04  -1.8875365e-02   6.3750985e-03   1.0507486e-02  -1.3604304e-01  -8.6433686e-02  -5.7114013e-02  -2.7307374e-02   5.3468230e-02   1.6421838e-01  -1.0419032e-02   2.7242007e-01  -3.1891264e-01  -5.2890948e-02  -2.5108120e-01  -2.7037865e-01   2.4051555e-01   4.2036427e-01   3.2801818e-01   5.9372045e-01  -2.3071354e-02  -5.3795756e-01  -1.7251110e-01   6.2827593e-01  -5.0910487e-01   2.9495065e-01   3.1397846e-01   3.0885950e-01
  -1.7731307e-02   5.9040311e-02   1.1022451e-01   4.5972016e-02  -1.8176830e-01   1.9936669e-01  -1.7993665e-01   7.0251374e-02  -1.6607554e-01   2.6026475e-01   7.2008493e-02   3.7920649e-01  -1.5264762e-01  -9.1153017e-02  -3.7564812e-01   5.8673261e-02   1.0756249e+00  -2.5765498e-01   4.5573152e-01   2.6637777e-03   1.1993484e+00   2.6864124e-01  -1.9598762e-01   9.5595695e-02   3.6814416e-01  -1.4831427e-02  -1.4375999e-01   1.1196834e+00   1.1862262e+00
   2.1703512e-02   2.9740967e-02  -5.7785800e-02   1.0819313e-01   3.0725617e-02   9.5866684e-02   2.5868727e-01   7.5681790e-02   5.3862070e-02   1.4505080e-01  -2.1803843e-01   2.5174320e-01  -1.0695968e-01  -1.7216521e-01  -1.2015486e-01  -3.0788244e-01  -2.0392358e-01   8.1450111e-02  -6.5710529e-01  -7.7158240e-01  -1.8288644e-01   1.3930222e-01  -3.3785739e-01   6.2513660e-01  -4.5350373e-02  -1.6618730e-02  -1.6732005e-01   8.6211834e-01   3.0712584e-01
   3.0683811e-02   2.2215465e-03   1.8140272e-02  -1.4212410e-02   2.4423728e-02  -2.9488770e-03  -2.1599061e-02  -5.4572455e-02  -5.5349231e-02  -8.8519130e-02   1.0079916e-01   2.5044357e-01  -1.2786025e-01   1.5422015e-01   8.3322631e-02   3.9158301e-01   9.8495516e-02  -3.2312858e-01  -2.0806552e-02  -1.1576607e-01   1.1081262e-01  -4.1228928e-01  -2.1106512e-01  -2.7618799e-01  -4.8520175e-01   6.5314185e-02   2.3950698e-01  -2.9928326e-01   6.7425785e-02
   1.7531934e-02  -1.7812933e-03   2.6501529e-02  -5.7583833e-02  -3.3966718e-02   5.7338349e-03  -2.2951537e-03   1.1504812e-01   1.3450317e-01   1.2455972e-01  -1.1364452e-01   3.6124620e-02   1.6649592e-01   2.7023100e-02   2.4449887e-01  -1.8141435e-01  -1.8026393e-01   1.1768062e-01  -4.6698505e-03  -1.5046520e-01   2.5646049e-02  -2.2997680e-01   1.7811670e-01  -1.7671376e-01   2.4378636e-01   1.1720975e-01   2.4015159e-01   4.0959637e-01   1.9516439e-01
  -3.5363487e-02   1.3632006e-02  -1.6870930e-02  -5.0701310e-02  -6.9490017e-02   9.6264701e-02  -7.8643954e-03  -2.5569132e-01   4.7755241e-01   1.9271676e-02  -3.1602868e-02  -4.3247002e-01  -2.8969940e-01  -2.0429642e-01  -6.5951927e-02  -6.6345897e-02   6.1033235e-02   4.7023037e-01  -4.0341597e-01   4.1696176e-01   1.9793502e-01  -2.0874398e-01   6.5621085e-01   6.9657936e-02  -6.7818824e-02   6.2325011e-01   1.5539864e-01   5.6951965e-01   1.2713953e-01
  -4.7196409e-02  -4.2008942e-02   4.9768447e-02   6.6465606e-02   1.0339998e-01  -2.6474577e-02   3.8763260e-02   5.6469777e-01   3.4466700e-02   1.2368036e-01  -3.8854359e-02  -5.4408874e-01  -7.7624346e-01  -1.5825775e-01  -7.2131273e-01  -1.6120906e-01  -4.6608775e-01   7.9518950e-01   3.1584422e-01  -1.2416248e+00   2.7452617e-01  -9.3829822e-01   2.4408559e-01  -4.0734692e-02  -5.6601767e-02  -6.4640946e-01  -3.3931177e-01   2.1421938e-01   3.8006802e-01
  -2.8323509e-02   7.5752084e-02  -6.1625963e-03  -2.9945446e-01   8.2285883e-02  -3.5871343e-02   9.2808351e-02  -9.8316943e-02   1.7947602e-01   4.0916893e-01  -2.6327975e-01   1.8123154e-01  -7.3490478e-02  -1.8998965e-01   1.0135745e-02   3.0776448e-01   4.2350900e-02  -2.7039345e-01   3.2885344e-02   3.1252709e-02  -2.6482873e-01   5.8526812e-01   3.1963912e-01   7.9043500e-01   1.5154716e-01  -2.4890752e-02  -4.4303590e-01   6.9979585e-01  -3.4056734e-01
   2.4264571e-02   8.9348906e-02  -4.7160649e-03  -5.5611455e-02   5.6033698e-02   2.7383168e-01   9.0589110e-03  -4.3846342e-01   6.9788576e-02  -4.3859347e-03   7.1586350e-01   5.2685152e-01   9.1575362e-01   6.1963489e-01   5.1872149e-01  -3.7454407e-01   1.9608413e-02  -6.7116293e-01  -2.7192541e-01   7.1707297e-01   4.0289596e-01  -3.5826632e-01   7.9162962e-01  -3.3677883e-01  -5.1949979e-01   2.6249172e-01  -4.7090672e-01  -8.5030869e-01   1.6400215e-01
  -9.4951933e-03  -3.0177755e-02  -2.3280635e-02   1.8697473e-02  -1.7033055e-01  -1.6709630e-01   1.1752748e-01   6.1581657e-02  -4.1092222e-01  -2.5511049e-01   2.4119472e-02   1.8266627e-01   1.0976012e-01   3.5641649e-03  -4.7599130e-01   4.9912494e-01  -9.2647697e-02   6.4974140e-01  -2.6020814e-01  -7.4711888e-01  -1.6826664e-01   1.0465481e+00   1.3764455e-01  -4.5804396e-01  -4.4431786e-01   8.3539723e-02   7.7604847e-01   3.5759787e-01  -4.5874394e-01
  -1.0345668e-02  -3.4948987e-03   6.6646176e-03   2.4960198e-02   3.0941635e-03  -3.7707474e-03  -2.8435945e-02  -2.8177284e-02  -7.0117569e-02  -8.0442883e-03   4.2019317e-02   6.6373210e-03   7.9539813e-02  -4.6574014e-02  -7.9600157e-02  -4.0859112e-02   1.6168644e-01   2.0081847e-01   3.4122087e-01  -2.4912243e-02   7.3384492e-02   2.3342268e-01  -2.2436737e-01   4.4556105e-02   7.2393213e-04  -1.8482957e-02  -2.3897974e-01  -5.1747398e-02  -6.2461135e-02
   5.3765902e-04   2.7003796e-02   6.6813394e-02   3.1026510e-02  -8.8995244e-02   9.3705791e-02  -1.1773468e-01   5.5982814e-02  -3.5077144e-02   1.5872372e-01   8.9888192e-02   2.6472591e-01  -1.2229615e-01   2.9553842e-02  -2.6866464e-01  -2.3756838e-02   5.6197253e-01  -1.1786541e-01   2.4260713e-01  -6.2488982e-02   5.8106556e-01  -4.1176064e-02  -2.8882249e-02  -8.3791048e-02   2.4191054e-01  -6.3643621e-03   1.3853622e-01   2.0927603e-01   5.2936959e-01
   1.0205116e-02   2.0972358e-02  -2.3319613e-02   6.1279381e-02   9.9419624e-03   1.0227097e-02   7.2310892e-02   5.0367049e-03   4.3978326e-02  -1.7221347e-02  -2.3874455e-02   1.2141613e-01  -3.7381962e-03  -4.3732002e-02  -2.6822041e-03  -4.4123416e-02  -2.2168669e-01   1.8873164e-01  -2.7389394e-01  -3.6293121e-01  -1.8519551e-01   1.7793747e-01  -9.1014284e-02   1.9433711e-01  -1.2789164e-01   3.1660932e-02  -1.6683301e-01   3.8599362e-01  -1.7621352e-01
  -5.1209976e-03  -1.3857276e-02   1.4012007e-02   1.3315483e-02   9.7636425e-03  -3.1734058e-02   9.4122048e-03   1.7776435e-02  -8.1091245e-02  -1.0289986e-01   8.4282862e-03  -5.3950822e-03   3.0662732e-02  -5.6392164e-02   1.3730862e-02   5.4483071e-02  -2.2699690e-01   2.4361774e-01   1.0640432e-01   9.5841009e-03  -2.4720891e-01   6.1956038e-02   1.1262223e-01   1.8587288e-01   4.8000194e-02  -1.9520080e-01  -3.0026212e-01  -6.8191096e-02  -3.3890081e-01
  -1.9182371e-02   3.5703324e-03   6.3266559e-03  -5.8444201e-03  -6.2510569e-02  -1.3424337e-02  -4.0698500e-02  -6.7857186e-02   2.6368751e-02   1.1316688e-01   6.2006761e-02  -1.2633030e-01   9.6142174e-02  -1.4867433e-01  -3.6649355e-02  -6.7731114e-02  -4.5634219e-02   1.9627480e-01   2.5577527e-01   2.7495519e-01   3.2658819e-01   3.7238438e-02  -2.8043930e-01   1.3393835e-01   1.9555646e-01  -2.4904713e-01  -3.2362127e-01   1.8468364e-01  -4.2686139e-02
  -1.2712950e-02   3.1956192e-03  -2.4365270e-02  -2.1131157e-02  -1.8862091e-02   3.3646096e-02  -1.8141001e-02  -9.0057841e-02   1.5667535e-01   3.6072502e-02  -1.5941939e-02  -1.5736382e-01  -8.3512355e-02  -6.7853512e-03  -1.3200995e-01  -1.1221023e-01  -1.1593206e-01   1.8875671e-01  -2.2577247e-01   1.2513651e-01   1.5776801e-03  -1.5384467e-01   2.1167362e-01   4.9954915e-02  -5.1090177e-02  -5.7816012e-02   1.3963734e-02   5.6951260e-02  -3.3640659e-01
  -3.5134498e-02  -4.5137825e-02   2.6228468e-02   5.1483943e-02   4.1999839e-02  -6.1257650e-02   1.3242480e-02   3.1662469e-01   1.2804234e-02   5.5305705e-02  -1.1503130e-01  -3.0313679e-01  -4.5344974e-01  -2.5024608e-01  -4.1679302e-01   1.5797351e-01  -1.0307260e-01   4.7019842e-01   2.5525539e-01  -4.5691684e-01   1.7534365e-01   4.8245337e-02   6.4107790e-02   3.1739753e-02  -1.6101455e-01  -1.4134169e-01  -1.3159936e-01   4.7642392e-01   2.0023768e-01
   1.4262043e-03   7.2285076e-02  -1.5624548e-02  -1.5697111e-01   5.2547064e-02  -1.2206958e-03   3.0110108e-02  -4.5773150e-02   1.3436914e-01   1.8883896e-01  -1.2240304e-01   9.3715323e-02  -2.1496969e-02  -5.3687804e-02   2.0230138e-01   2.8154086e-02   2.0852736e-01  -1.8883692e-01  -4.6836676e-02   4.5801613e-02  -4.9820189e-02   6.5428712e-02   7.0309699e-02   2.4245510e-01  -1.1677107e-01  -5.3784482e-02  -2.3037219e-02   3.4926385e-03   1.6954929e-01
   2.5203506e-02   4.8719377e-02  -5.5135325e-03  -4.4034174e-02   1.1133560e-02   1.7390737e-01  -3.6657650e-02  -3.4782629e-01  -1.6788307e-04  -8.6288633e-02   3.3393713e-01   2.0386557e-01   5.2442961e-01   3.5320598e-01   3.9719099e-01  -2.4070777e-01   9.8144479e-02  -5.5092997e-01  -1.4669738e-01   7.8157666e-01   8.6912539e-02  -8.5842087e-03   3.5929798e-01   7.3265647e-02  -5.8198577e-02   2.7422381e-01  -1.3472674e-01  -2.3577093e-01  -1.6945393e-01
  -8.4482378e-03  -2.9147051e-02  -4.2582824e-02  -1.7094882e-02  -9.2046497e-02  -8.8218618e-02   1.1140353e-01   1.1262689e-01  -2.7431145e-01  -1.3895981e-01  -5.7935497e-02  -8.5452977e-02  -1.1864264e-02   8.1195353e-02  -4.2464443e-01   2.0513167e-01  -2.3923434e-01   1.7851378e-01  -1.5260771e-01  -1.4730144e-01  -1.0009056e-01   7.0383722e-02  -1.4062572e-01   1.5167454e-02  -2.9783402e-01   6.9730957e-02   3.0578494e-01   9.7279992e-02   9.7472391e-03
  -1.2387851e-02  -6.1685825e-03   1.9401460e-02   3.6067520e-02  -3.4073589e-03   7.2664488e-02   5.7862979e-03  -1.9786019e-02  -8.0914627e-02  -4.2222991e-02  -1.2663164e-02   1.4519911e-02  -5.1161935e-02   1.1433155e-01  -1.0348645e-01   9.2187237e-02   3.8999975e-01   1.6573967e-01   2.3683168e-01  -2.1679855e-01  -2.4152183e-01   3.8037216e-01  -1.2029765e-02   1.8348005e-01  -3.6026370e-01   2.8318222e-01  -5.4125909e-01  -2.8777735e-01  -3.1037900e-01
   1.2815803e-02   5.1614238e-03   3.6207022e-02   2.1159315e-02  -2.3129340e-02   2.0469416e-02  -7.3672546e-02   2.5936556e-02   5.2953721e-02   7.4832753e-02   1.0122296e-01   1.8486243e-01  -9.8194413e-02   1.1540986e-01  -1.6559556e-01  -4.5024420e-02   2.0624709e-01  -1.6667315e-02   9.6126927e-02  -8.2537590e-02   1.6781481e-01  -2.3663096e-01   5.2365857e-02  -2.1136805e-01   5.3744599e-02   1.5314831e-02   2.9496778e-01  -4.1983118e-01   5.8537389e-02
   3.0182555e-03   1.1386838e-02  -3.5801627e-04   2.8451450e-02   8.5939425e-04  -4.1826979e-02  -4.2963989e-02  -3.7523747e-02   3.8533970e-02  -1.1208490e-01   9.3180177e-02   3.1528560e-02   6.6412667e-02   3.7033695e-02   6.7414026e-02   1.1082716e-01  -1.9672624e-01   2.2187568e-01  -1.9778418e-02  -5.7121925e-02  -1.4214843e-01   1.7222912e-01   8.3123863e-02  -1.1718811e-01  -1.6805570e-01   5.3126631e-02  -1.2596058e-01   2.5510809e-02  -4.0985215e-01
  -2.2106676e-02  -2.2668509e-02   8.5726685e-03   1.9751942e-02   1.2108356e-02  -5.4189060e-02   2.8672781e-02   5.0863100e-02  -7.2613308e-02  -1.0222303e-01  -5.0288790e-02  -1.5376466e-01   1.2069341e-01  -1.6289915e-01  -2.0937409e-03  -1.2582306e-01  -4.0696086e-01   4.9616005e-01   1.4744650e-01   8.4115704e-02  -4.2633833e-01   2.7809999e-01   2.7627297e-01   3.6750084e-01   3.0631526e-01  -2.8752531e-01  -4.8794704e-01   1.4580318e-02  -5.0362702e-01
  -3.4345113e-02   5.2204250e-03  -8.4175805e-03   2.2757115e-02  -6.3943043e-02  -2.8052580e-02  -6.2607914e-02  -1.5023869e-01  -3.7268017e-02   1.0577833e-01   1.5251215e-01  -2.0200512e-01   6.2971049e-02  -2.2892368e-01  -1.8376216e-01  -3.7068984e-02   2.0585213e-02   2.2178202e-01   3.7106506e-01   4.5248804e-01   4.4108091e-01   1.6233298e-01  -5.3175673e-01   2.8313678e-01   1.8096360e-01  -4.2204152e-01  -4.9907249e-01   1.7895744e-02  -1.3189510e-01
   2.4041271e-03  -1.9085257e-03  -2.7200558e-02  -2.4050213e-03   1.0855046e-02  -1.0713391e-02  -2.4225639e-02   8.3724912e-03  -5.2085069e-02   4.0417694e-02  -7.7852572e-04   2.6698632e-02   4.6735232e-02   1.1876345e-01  -1.6904349e-01  -9.9625268e-02  -2.0165696e-01  -4.0424002e-03  -1.0820813e-01  -4.8341039e-02  -9.7659861e-02  -9.5340608e-02  -1.0368116e-01   2.9739198e-02  -5.9414212e-02  -4.5304061e-01  -9.0822633e-02  -2.2362995e-01  -5.8256051e-01
  -2.4886656e-02  -4.1333240e-02   8.9351738e-03   3.6182495e-02   4.5915726e-03  -8.3783696e-02  -4.2483535e-03   1.3057486e-01   3.5536102e-03   1.4691026e-02  -1.3771800e-01  -9.1325921e-02  -2.0311780e-01  -2.6613817e-01  -2.0531195e-01   3.4521328e-01   1.3340869e-01   2.0407644e-01   1.7021456e-01   8.2540915e-02   9.6960926e-02   6.7554080e-01  -8.6228293e-02   6.8090782e-02  -2.0441595e-01   1.6605764e-01   5.0349265e-02   5.2830426e-01   5.5201846e-02
   2.1837673e-02   6.4615232e-02  -1.9026640e-02  -4.8261525e-02   2.8297104e-02   1.8052687e-02  -1.8153931e-02  -5.5283082e-03   1.0346907e-01   2.9358716e-02  -1.9445021e-02   1.9923714e-02  -3.7753093e-03   3.9141599e-02   2.8547252e-01  -1.6553595e-01   2.7980414e-01  -9.8159677e-02  -9.6986021e-02   4.0661807e-02   1.0603657e-01  -2.8242175e-01  -1.0909870e-01  -1.5093524e-01  -2.6392165e-01  -9.2836732e-02   2.1494233e-01  -4.4995538e-01   4.3409523e-01
   2.1955733e-02   1.9800436e-02  -2.2109962e-03  -2.9968442e-02  -1.4078902e-02   9.3669949e-02  -6.4783637e-02  -2.6214800e-01  -5.2327658e-02  -1.2938940e-01   5.0955589e-02  -3.8823747e-02   1.9784982e-01   1.4125761e-01   2.8011829e-01  -1.4913281e-01   1.3936905e-01  -3.8711516e-01  -5.2208452e-02   7.0316221e-01  -1.4895236e-01   2.0047604e-01   2.9662845e-02   3.5801982e-01   2.8140878e-01   2.6025609e-01   8.6932584e-02   1.7199630e-01  -3.9602865e-01
  -8.4499422e-03  -2.3474658e-02  -5.2816033e-02  -4.1801595e-02  -3.3476381e-02  -2.5216197e-02   1.0324012e-01   1.3721970e-01  -1.5956971e-01  -4.3912202e-02  -9.8087918e-02  -2.4991543e-01  -7.3021344e-02   1.1948154e-01  -3.3163629e-01   2.6467014e-02  -2.9143240e-01  -1.2394846e-01  -6.1340029e-02   2.4105780e-01  -2.9834334e-02  -5.6275536e-01  -2.9907854e-01   3.1746447e-01  -1.8831597e-01   3.3861821e-02  -5.1307638e-02  -8.8760931e-02   3.3113180e-01
  -1.2473968e-02  -8.6585442e-03   2.2788031e-02   3.9721625e-02  -6.5390515e-03   1.0526047e-01   2.2127490e-02  -2.0309711e-02  -6.7325743e-02  -5.4783339e-02  -2.5058560e-02   2.1539527e-02  -1.2701431e-01   1.9058792e-01  -1.1510362e-01   1.6046021e-01   4.6204111e-01   1.2733210e-01   1.2126640e-01  -2.9251470e-01  -3.9424812e-01   4.2816520e-01   1.2152659e-01   2.4394809e-01  -5.1676353e-01   4.3959017e-01  -6.3751144e-01  -4.0661209e-01  -4.3993226e-01
   1.9230406e-02  -8.6827595e-03   1.6238923e-02   1.5738489e-02   1.9512003e-02  -2.6374036e-02  -4.5269334e-02  -1.0455341e-02   1.0293309e-01   7.5291413e-03   1.0554755e-01   1.2903804e-01  -7.7087551e-02   1.6692695e-01  -7.5439978e-02  -3.3173676e-02  -2.6978011e-02   6.3091319e-02   6.3951897e-03  -6.7829264e-02  -8.7848852e-02  -3.3341927e-01   7.4336810e-02  -2.7851958e-01  -1.4237099e-01   3.5819042e-02   3.4401123e-01  -8.0327939e-01  -2.6316014e-01
  -6.4418757e-04   2.3023047e-03   1.2628084e-02   8.1553142e-03  -1.5354497e-04  -6.5705714e-02  -9.9023692e-02  -5.6352316e-02   3.7178555e-02  -1.5302015e-01   1.4616968e-01  -2.1978755e-02   1.1061595e-01   7.6880735e-02   1.0143037e-01   1.7853004e-01  -1.4782776e-01   2.0190974e-01   1.2588002e-01   1.4966167e-01  -7.9214335e-02   1.3997499e-01   1.9568642e-01  -3.1453579e-01  -1.7225659e-01   5.4866696e-02  -6.6764744e-02  -2.1986149e-01  -4.5380569e-01
  -2.6099672e-02  -2.4907991e-02   3.7847054e-03   1.2971834e-02   2.1406126e-02  -6.7850486e-02   3.7803857e-02   5.5672595e-02  -4.6732122e-02  -9.1892597e-02  -8.1208631e-02  -2.1625310e-01   1.5231141e-01  -1.9300457e-01   1.3824128e-02  -1.8578867e-01  -4.6840092e-01   5.2753633e-01   1.3481125e-01   1.2248106e-01  -4.6242654e-01   3.2306668e-01   3.1764705e-01   3.6779671e-01   3.6697554e-01  -2.6803761e-01  -4.5139960e-01   2.3363258e-02  -5.0947455e-01
  -3.4111607e-02   4.5279553e-03  -1.6860876e-02   3.4259253e-02  -5.0274374e-02  -3.5141402e-02  -7.0868707e-02  -1.6014381e-01  -6.6930099e-02   9.6669088e-02   1.7887144e-01  -2.1024870e-01   5.0203339e-02  -2.2813165e-01  -2.2762232e-01  -4.9028181e-02   4.9651073e-02   2.0992427e-01   3.8154433e-01   4.4788884e-01   4.2623597e-01   1.9684314e-01  -6.2824238e-01   3.1277415e-01   1.6179404e-01  -4.3920377e-01  -4.3741542e-01  -9.6823179e-02  -1.3050357e-01
   1.0998880e-02  -3.0537909e-03  -2.6748585e-02   7.3071654e-03   2.3870225e-02  -3.7403757e-02  -2.6145260e-02   5.4575619e-02  -1.6618646e-01   3.4301873e-02   1.3611920e-02   1.3192706e-01   1.1470674e-01   1.8274663e-01  -1.8098842e-01  -5.2893126e-02  -2.1802083e-01  -1.1819506e-01  -4.0641932e-02  -1.2829078e-01  -1.2823604e-01  -3.8748902e-02  -2.9803790e-01   1.1446368e-02  -7.4176404e-02  -6.1978515e-01  -1.5615023e-01  -3.3158120e-01  -6.5387063e-01
  -1.6246707e-02  -3.2693638e-02  -3.1401745e-03   2.1247108e-02  -1.4246917e-02  -9.4607512e-02  -1.4193362e-02  -1.3200607e-03   3.4261045e-03  -4.0019371e-03  -1.1961711e-01   8.4840455e-02  -1.6176252e-02  -2.2667149e-01  -6.9602302e-02   4.2737267e-01   2.6662179e-01  -9.9900646e-03   7.4487529e-02   4.2275197e-01   4.2819486e-02   1.0044415e+00  -2.0116630e-01   7.3188997e-02  -2.0365295e-01   3.1629316e-01   1.9422898e-01   4.3824050e-01  -5.1683393e-02
   3.3867342e-02   5.3740512e-02  -1.8315191e-02   2.9485067e-02   1.0191511e-02   2.5275293e-02  -5.2091270e-02   2.2369822e-02   8.2984813e-02  -7.6492435e-02   4.9440334e-02  -3.8434468e-02  -8.3163594e-03   9.3364532e-02   2.8768118e-01  -2.8274281e-01   2.7935296e-01  -7.6801372e-03  -1.2033355e-01   2.5077438e-02   2.0522569e-01  -4.8201227e-01  -2.2359434e-01  -4.0821087e-01  -3.1235705e-01  -1.3270922e-01   3.1061240e-01  -6.9274458e-01   5.1540319e-01
   1.5778465e-02   7.4276573e-04   3.6264294e-03  -1.4676297e-02  -2.4551365e-02   3.3962407e-02  -7.7035171e-02  -1.8422745e-01  -8.8619011e-02  -1.4292957e-01  -1.4518447e-01  -2.1150138e-01  -5.9705070e-02  -2.3252569e-02   1.8024624e-01  -8.7187941e-02   1.5563262e-01  -2.0107127e-01   2.1022595e-02   5.2847782e-01  -3.0998237e-01   3.0139079e-01  -1.9908969e-01   5.2427464e-01   5.0858174e-01   2.2935757e-01   2.1115609e-01   4.1193876e-01  -5.1450820e-01
  -8.9259083e-03  -1.4805359e-02  -5.5493895e-02  -5.6802839e-02   6.6552117e-03   2.3514913e-02   9.4141183e-02   1.4139738e-01  -6.7954860e-02   2.5114722e-02  -1.0774950e-01  -3.2634834e-01  -8.5677081e-02   1.2531641e-01  -2.0989380e-01  -6.1420720e-02  -2.6985589e-01  -2.8834877e-01   1.4802340e-02   4.5600608e-01   3.2172219e-02  -9.0838540e-01  -3.5996950e-01   4.6943816e-01  -1.0510443e-01  -9.5090176e-03  -3.0185605e-01  -2.1265821e-01   5.3112608e-01
  -1.0416461e-02  -1.0650049e-02   2.0102239e-02   3.6944440e-02  -5.7984022e-03   1.0641279e-01   2.6121425e-02  -2.2124075e-02  -3.7723639e-02  -5.2124426e-02  -1.4959553e-02   3.2101335e-02  -1.5755414e-01   2.0772914e-01  -1.1037613e-01   1.8026049e-01   4.2522106e-01   8.2709724e-02   8.9240681e-03  -2.9044877e-01  -4.2699411e-01   3.9658693e-01   1.9554903e-01   2.3547340e-01  -5.2959007e-01   4.9087217e-01  -5.7510136e-01  -4.2774151e-01  -4.6888429e-01
   2.0551656e-02  -1.6574997e-02   4.7148682e-03   1.3635532e-02   4.3538015e-02  -5.2876699e-02  -2.9668586e-02  -4.5867654e-02   1.2162886e-01  -4.4171299e-02   1.0254028e-01   8.9011802e-02  -5.6828156e-02   1.8783363e-01  -3.3733425e-03  -9.3612666e-03  -1.6986022e-01   1.3075813e-01  -3.9197239e-02  -3.0021073e-02  -2.2852732e-01  -3.5332170e-01   5.9058951e-02  -2.8803438e-01  -3.0978127e-01   4.6923810e-02   3.1134197e-01  -9.8431180e-01  -4.6721688e-01
  -1.6503159e-03  -5.3107155e-03   1.7570214e-02  -1.6439007e-03   3.6277415e-03  -6.7624360e-02  -1.0934433e-01  -5.6710249e-02   3.9045878e-02  -1.5459450e-01   1.5002880e-01  -4.5449291e-02   1.3608039e-01   8.4636915e-02   1.1095729e-01   1.8231861e-01  -9.0440276e-02   1.4897674e-01   1.8741701e-01   2.6857835e-01  -1.5664436e-02   9.7199488e-02   2.5797196e-01  -4.1200297e-01  -1.4912540e-01   4.3162815e-02  -6.3842817e-03  -3.6029796e-01  -3.6737603e-01
  -2.2263993e-02  -2.2083616e-02   5.9444312e-04  -2.0513432e-04   3.0933533e-02  -7.2710157e-02   3.9470332e-02   4.3557158e-02  -1.6521408e-02  -7.6380626e-02  -9.1440915e-02  -2.1723619e-01   1.4032776e-01  -1.7361789e-01   4.4361553e-02  -1.6535184e-01  -4.4478302e-01   4.2360814e-01   9.4452895e-02   1.3588325e-01  -4.0036262e-01   2.6989327e-01   2.7682028e-01   2.7103268e-01   3.0558754e-01  -1.8746384e-01  -2.9781120e-01   7.7350536e-03  -4.2620963e-01
  -2.4611210e-02   2.5664676e-03  -1.9192643e-02   3.4490083e-02  -3.1340547e-02  -3.3774930e-02  -6.9085907e-02  -1.2489923e-01  -7.2860722e-02   8.3608301e-02   1.6309128e-01  -1.7301648e-01   4.5429554e-02  -1.6856588e-01  -2.0167116e-01  -7.2943488e-02   6.5264804e-02   1.7690326e-01   3.2579286e-01   3.2760953e-01   3.3443177e-01   1.8497523e-01  -6.1736571e-01   2.6611851e-01   1.2117063e-01  -3.4452178e-01  -2.6459130e-01  -1.6669677e-01  -8.5668441e-02
   1.4415804e-02  -1.5989663e-03  -2.4194825e-02   1.0012857e-02   2.4639316e-02  -4.8303351e-02  -2.4323295e-02   6.3584248e-02  -2.0541041e-01   1.9944982e-02   2.6468407e-02   1.7343714e-01   1.3493400e-01   1.9877154e-01  -1.7264186e-01   7.4295000e-03  -1.8719457e-01  -1.6738918e-01  -1.2794426e-02  -1.4091657e-01  -1.1667346e-01   1.1179749e-02  -3.8720820e-01  -3.9926633e-03  -8.3637787e-02  -6.1697654e-01  -1.8388132e-01  -3.2405622e-01  -5.9597035e-01
  -9.0915567e-03  -2.1291736e-02  -1.1006196e-02   7.3783813e-03  -1.9656374e-02  -9.4955382e-02  -1.7542036e-02  -8.7416913e-02   9.1476817e-03  -7.0716811e-03  -7.3583484e-02   2.2121658e-01   1.1716395e-01  -1.5164899e-01   7.1186228e-03   4.3016299e-01   3.1944546e-01  -1.7809652e-01  -1.9936353e-02   6.0837689e-01   1.2392430e-02   1.0985555e+00  -2.7814116e-01   5.4551218e-02  -1.7340685e-01   3.4915914e-01   2.9338472e-01   2.6630339e-01  -1.1983867e-01
   3.8835517e-02   4.0758345e-02  -1.5156724e-02   7.9900809e-02  -1.6613131e-03   2.3799297e-02  -7.2556973e-02   3.8815773e-02   6.9689489e-02  -1.3724590e-01   8.9022923e-02  -8.0551086e-02  -2.4935700e-02   1.1604695e-01   2.3568543e-01  -3.3540027e-01   2.2910064e-01   7.4720516e-02  -1.2079484e-01   5.8801380e-03   2.5239993e-01  -5.5982698e-01  -2.8005811e-01  -5.5066397e-01  -2.8659029e-01  -1.6707882e-01   3.0480216e-01  -7.6357033e-01   4.7143470e-01
   7.8893616e-03  -1.0416164e-02   1.0602921e-02   6.0045688e-04  -2.4746169e-02  -6.0795709e-03  -7.6085943e-02  -1.1604038e-01  -1.1122627e-01  -1.3536183e-01  -2.6797311e-01  -3.2497283e-01  -2.4832662e-01  -1.4679605e-01   1.0475350e-01  -4.5169631e-02   1.5565791e-01  -1.1871634e-02   7.9553592e-02   2.9965893e-01  -4.0456148e-01   3.2427481e-01  -3.3485070e-01   5.8614762e-01   6.3546624e-01   1.8924833e-01   2.5780782e-01   5.2247252e-01  -5.3364035e-01
  -9.3249044e-03  -4.5952684e-03  -5.2320477e-02  -6.3949394e-02   3.0496601e-02   5.9077492e-02   8.4733105e-02   1.3143785e-01   9.9415742e-04   6.7036590e-02  -9.7137498e-02  -3.3192380e-01  -6.4129402e-02   1.0722580e-01  -7.6226279e-02  -8.5402636e-02  -1.9803721e-01  -3.4713428e-01   7.4634152e-02   5.3591206e-01   8.0576228e-02  -1.0276688e+00  -3.4799831e-01   5.0013235e-01  -3.8595237e-02  -4.8592566e-02  -4.5493676e-01  -2.8359286e-01   6.2925801e-01
  -6.6963361e-03  -1.1900046e-02   1.4157463e-02   2.9444502e-02  -1.9808649e-03   8.7789570e-02   2.2597120e-02  -2.1241397e-02  -4.2317258e-04  -4.0443806e-02   3.5031206e-03   4.6979938e-02  -1.5334799e-01   1.8793508e-01  -8.9991440e-02   1.6878118e-01   3.2306682e-01   3.2998365e-02  -8.7363511e-02  -2.4132370e-01  -3.7891530e-01   3.1043556e-01   2.2631092e-01   1.7482521e-01  -4.5324036e-01   4.7115564e-01  -4.1251112e-01  -3.7520258e-01  -4.2295835e-01
   1.7953652e-02  -2.0257240e-02  -4.0178997e-04   1.3460077e-02   5.3767828e-02  -6.4545434e-02  -2.3933016e-02  -7.5456646e-02   1.1667133e-01  -8.1305827e-02   9.2399061e-02   5.9098920e-02  -3.6709542e-02   1.8402173e-01   4.8593521e-02   1.3115931e-02  -2.4913817e-01   1.8903250e-01  -5.3838543e-02   1.9557751e-02  -2.8966287e-01  -3.2068363e-01   2.3573815e-02  -2.5111844e-01  -4.2848466e-01   4.5850765e-02   2.2548042e-01  -1.0088178e+00  -5.7948832e-01
  -8.7883977e-04  -1.0859694e-02   1.6605073e-02  -3.2908462e-03   9.4814995e-03  -5.4090071e-02  -8.7809710e-02  -4.4135146e-02   4.2942817e-02  -1.3089654e-01   1.2011045e-01  -4.6663934e-02   1.4927975e-01   6.9932741e-02   1.0663612e-01   1.4491985e-01  -3.6199872e-02   8.1047626e-02   1.9014334e-01   3.1570821e-01   3.5677185e-02   5.6517454e-02   2.8090588e-01  -4.2972245e-01  -1.0819167e-01   2.3390159e-02   4.3238219e-02  -4.1291093e-01  -2.0547417e-01
  -1.4780869e-02  -1.6065673e-02  -7.9389062e-04  -1.4459049e-02   3.6922477e-02  -7.0306391e-02   3.6612404e-02   2.4360393e-02   8.9931184e-03  -5.9129634e-02  -8.8167632e-02  -1.8040818e-01   1.0098916e-01  -1.2840238e-01   7.7446747e-02  -1.0128981e-01  -3.6957070e-01   2.5619969e-01   4.5651148e-02   1.3260284e-01  -2.8513842e-01   1.7474686e-01   1.9107016e-01   1.4193435e-01   1.8684884e-01  -8.7062913e-02  -1.0886291e-01  -4.2551300e-03  -3.0678575e-01
  -1.1236107e-02   7.7138611e-05  -1.6466480e-02   2.8518000e-02  -1.4114874e-02  -2.4908651e-02  -6.0994939e-02  -6.8384804e-02  -6.3973228e-02   6.7004714e-02   1.2544722e-01  -1.1178433e-01   4.0987166e-02  -7.5770781e-02  -1.3773369e-01  -8.9346656e-02   8.1915863e-02   1.3732696e-01   2.3699285e-01   1.5187536e-01   2.0922988e-01   1.5973232e-01  -5.3958022e-01   1.8224803e-01   5.8959483e-02  -1.8357741e-01  -7.3991838e-02  -2.0010414e-01  -3.1682009e-02
   1.4139697e-02   1.2461173e-03  -2.0475099e-02   7.7250202e-03   1.7444841e-02  -4.6254067e-02  -1.9593795e-02   4.9166467e-02  -1.9025455e-01  -2.3714843e-04   3.6956331e-02   1.6779725e-01   1.2151307e-01   1.8184255e-01  -1.4975950e-01   6.5630561e-02  -1.2938821e-01  -1.6754246e-01  -1.4639268e-02  -1.1113561e-01  -8.5001945e-02   5.1068313e-02  -3.9243925e-01  -1.6459689e-02  -8.2295862e-02  -5.0102623e-01  -1.7954280e-01  -2.5152672e-01  -4.5421793e-01
  -3.3370320e-03  -9.0496256e-03  -1.5616490e-02  -4.7967159e-03  -1.6238028e-02  -8.6599623e-02  -1.5568801e-02  -1.3611556e-01   1.7751945e-02  -7.0978520e-04  -1.1954402e-02   3.1613459e-01   2.0669865e-01  -5.8901171e-02   4.0326805e-02   3.7706428e-01   3.1326481e-01  -3.0555974e-01  -1.0349862e-01   6.8048796e-01   1.9951941e-03   1.0205387e+00  -3.1756107e-01   2.1174476e-02  -1.2589910e-01   3.0183024e-01   3.4629873e-01   6.2293214e-02  -1.5152174e-01
   3.8276807e-02   2.6781990e-02  -1.0865537e-02   1.0719865e-01  -7.6660961e-03   1.6890490e-02  -8.1074321e-02   4.5368565e-02   6.0861704e-02  -1.6202155e-01   1.0460743e-01  -1.0644559e-01  -4.5738019e-02   1.1540175e-01   1.5339940e-01  -3.3637200e-01   1.4911298e-01   1.4288614e-01  -1.0294185e-01  -1.2371627e-02   2.5456515e-01  -5.4359481e-01  -2.8695169e-01  -6.0103012e-01  -2.1175428e-01  -1.9242650e-01   2.3630838e-01  -7.0422463e-01   3.5359398e-01
  -5.8503074e-04  -1.5609081e-02   1.7555452e-02   1.4720879e-02  -1.8522388e-02  -2.8691151e-02  -6.5287330e-02  -5.8903419e-02  -1.2244049e-01  -1.1405405e-01  -3.3139000e-01  -3.8978163e-01  -3.7198672e-01  -2.3507010e-01   5.5695174e-02  -1.5782084e-02   1.4517899e-01   1.6444891e-01   1.2715277e-01   5.2664116e-02  -4.4300432e-01   2.9596929e-01  -3.9026500e-01   5.6284721e-01   6.7589892e-01   1.4597725e-01   2.4796951e-01   5.3970395e-01  -4.6997686e-01
  -9.1776954e-03   5.9590128e-03  -4.5063109e-02  -6.5305376e-02   4.0789777e-02   8.2386876e-02   7.5287161e-02   1.1308022e-01   4.9133681e-02   8.3851517e-02  -7.4749468e-02  -2.8400312e-01  -2.3025178e-02   7.4390135e-02   5.1530461e-02  -7.1498571e-02  -9.9648163e-02  -3.3245271e-01   1.1559755e-01   5.1765300e-01   1.1421354e-01  -9.8224654e-01  -2.8806435e-01   4.4293181e-01   1.8652558e-02  -7.4968967e-02  -5.2194632e-01  -3.0880233e-01   6.4099966e-01
  -2.1898886e-03  -1.2277712e-02   7.1258696e-03   1.9253372e-02   3.4777369e-03   5.9441380e-02   1.5435440e-02  -1.6630451e-02   3.7080162e-02  -2.5052844e-02   2.1486350e-02   6.4243446e-02  -1.2495633e-01   1.4885696e-01  -5.8225476e-02   1.4165698e-01   1.9231130e-01  -1.8128550e-02  -1.5801279e-01  -1.6815711e-01  -2.8442617e-01   1.9521886e-01   2.2732864e-01   8.2721073e-02  -3.3262135e-01   4.0738864e-01  -2.0881320e-01  -2.7483865e-01  -3.3081095e-01
   1.2772992e-02  -2.1106975e-02  -8.8542496e-04   1.3799034e-02   5.4684943e-02  -6.6047983e-02  -2.5235264e-02  -9.6691967e-02   9.5689591e-02  -1.0506424e-01   7.5959953e-02   3.5819314e-02  -1.7319308e-02   1.6235392e-01   8.0795109e-02   2.8056735e-02  -2.8561199e-01   2.3609121e-01  -4.9633317e-02   7.1129608e-02  -2.9893941e-01  -2.5918203e-01  -1.9691107e-02  -1.8374414e-01  -4.9220767e-01   3.3814036e-02   1.1377417e-01  -9.2118917e-01  -6.2104073e-01
   8.5492774e-04  -1.4111460e-02   1.1874434e-02   7.4800325e-04   1.5356476e-02  -3.1417956e-02  -4.7623719e-02  -2.3912833e-02   4.7563744e-02  -9.4235981e-02   7.0895413e-02  -3.3860584e-02   1.5534194e-01   4.2077963e-02   9.7091179e-02   8.6393231e-02   7.1898813e-03   1.2896222e-02   1.5770703e-01   3.0952536e-01   6.8126305e-02   2.6202664e-02   2.7452387e-01  -3.9026142e-01  -5.8746206e-02   1.8756924e-05   7.5198150e-02  -3.9869322e-01  -1.5755853e-02
  -6.7061291e-03  -8.7177620e-03  -6.4409711e-04  -2.6171137e-02   3.7981714e-02  -6.2930959e-02   3.1861055e-02   5.3755030e-03   2.4682622e-02  -4.2514745e-02  -7.7758317e-02  -1.2626066e-01   4.9353703e-02  -7.6285153e-02   1.0544333e-01  -2.3057069e-02  -2.7182960e-01   7.9469295e-02   1.3314668e-03   1.1851317e-01  -1.5535864e-01   7.6293586e-02   9.1439650e-02   2.4479660e-02   5.9560452e-02   3.2729015e-03   6.0377595e-02  -1.1931991e-03  -1.8678253e-01
   1.8486228e-03  -2.4922722e-03  -1.0287561e-02   2.0282243e-02  -2.5801346e-03  -1.0807743e-02  -4.9983671e-02  -9.3370681e-03  -4.7238985e-02   4.8890311e-02   8.2543055e-02  -4.4875644e-02   3.3487462e-02   2.5712358e-02  -6.2713847e-02  -8.9168811e-02   1.0548690e-01   1.0232428e-01   1.4075443e-01  -3.0296539e-02   8.3540841e-02   1.4145385e-01  -4.2744823e-01   9.1905621e-02  -1.4584199e-02   1.4137204e-03   7.5464098e-02  -2.0606121e-01   1.0376943e-02
   1.1616210e-02   4.4982139e-03  -1.6268996e-02   2.3271547e-03   6.0834685e-03  -3.4709522e-02  -1.3090527e-02   2.2932408e-02  -1.4039279e-01  -2.3739161e-02   4.4396243e-02   1.3145406e-01   8.7188936e-02   1.4653874e-01  -1.1871514e-01   1.1113251e-01  -6.1472458e-02  -1.3504380e-01  -3.6807360e-02  -6.0523671e-02  -4.9490464e-02   7.9208245e-02  -3.3767602e-01  -2.6091548e-02  -6.9459403e-02  -3.2260114e-01  -1.5098114e-01  -1.5471124e-01  -2.7044634e-01
   1.0933925e-03   2.3832251e-03  -1.7839743e-02  -1.4806669e-02  -7.8805114e-03  -7.1685943e-02  -9.7253331e-03  -1.5550676e-01   2.6803939e-02   9.5031971e-03   5.4129486e-02   3.7038809e-01   2.6160494e-01   3.6508809e-02   4.3581752e-02   2.8857759e-01   2.6724069e-01  -3.9710123e-01  -1.6946122e-01   6.7491875e-01   5.9257628e-03   8.2882594e-01  -3.2253654e-01  -1.7677502e-02  -7.0839985e-02   2.0747182e-01   3.5564818e-01  -1.3529358e-01  -1.5164358e-01
   3.3775148e-02   1.2855718e-02  -6.3847743e-03   1.1589194e-01  -8.6624739e-03   7.5630196e-03  -7.9681900e-02   4.4032012e-02   5.4270950e-02  -1.5983823e-01   1.0162903e-01  -1.1701418e-01  -6.5231198e-02   9.9639161e-02   6.0747600e-02  -2.9844871e-01   5.6947437e-02   1.9259334e-01  -7.1572867e-02  -2.7081106e-02   2.2084811e-01  -4.6073692e-01  -2.5392528e-01  -5.8193856e-01  -1.1176263e-01  -2.0752133e-01   1.3891073e-01  -5.5639865e-01   2.0476420e-01
  -8.6694690e-03  -1.6623180e-02   2.3592058e-02   2.6721923e-02  -9.0728332e-03  -3.7053841e-02  -4.8311957e-02  -1.3592836e-02  -1.2453483e-01  -8.5140710e-02  -3.4910782e-01  -4.1567836e-01  -4.3776702e-01  -2.9302496e-01   3.0965900e-02   6.4068158e-03   1.2771351e-01   3.1546742e-01   1.6531960e-01  -1.8382306e-01  -4.3651823e-01   2.3941352e-01  -3.8114512e-01   4.7630140e-01   6.4445663e-01   1.0362382e-01   2.0218386e-01   4.9584945e-01  -3.4521620e-01
  -8.1641047e-03   1.5935483e-02  -3.5429772e-02  -6.2877701e-02   4.0579450e-02   9.4475948e-02   6.5905170e-02   9.1009887e-02   7.9291922e-02   7.9695749e-02  -4.7187073e-02  -1.9926077e-01   2.4428724e-02   3.5510557e-02   1.5751275e-01  -4.2235504e-02   3.9780609e-03  -2.7406558e-01   1.3519220e-01   4.3502331e-01   1.3476335e-01  -8.2971489e-01  -2.0313758e-01   3.3164412e-01   7.1310592e-02  -8.3841212e-02  -5.1651761e-01  -2.9490153e-01   5.8026877e-01
   2.1175128e-03  -1.1779581e-02   4.8132749e-04   8.3766239e-03   9.0596118e-03   2.9235354e-02   7.4566496e-03  -9.3412819e-03   6.8719024e-02  -9.9555319e-03   3.4575320e-02   8.0511319e-02  -8.2111582e-02   1.0325451e-01  -2.1407119e-02   1.1131788e-01   6.1151857e-02  -6.5974346e-02  -1.9780440e-01  -8.7102699e-02  -1.7196748e-01   7.3584725e-02   2.0960105e-01  -1.9608031e-02  -2.0156523e-01   3.1931549e-01  -1.4845736e-02  -1.5162627e-01  -2.1945178e-01
   6.3039120e-03  -2.0143469e-02   1.7894940e-03   1.3420047e-02   5.0081431e-02  -6.1128993e-02  -3.0971181e-02  -1.0888251e-01   6.5648755e-02  -1.1684464e-01   5.4642033e-02   1.7265108e-02  -1.1087002e-04   1.2960371e-01   9.5129474e-02   3.4589586e-02  -2.9463819e-01   2.6793146e-01  -3.6507923e-02   1.1723456e-01  -2.7683544e-01  -1.8930318e-01  -6.2171220e-02  -1.0313317e-01  -5.0448033e-01   1.4366492e-02  -7.0901407e-04  -7.6132177e-01  -6.0939694e-01
   2.8650270e-03  -1.5137323e-02   5.3411140e-03   8.0774429e-03   1.9905312e-02  -5.3104447e-03  -4.0469700e-04  -6.8686683e-04   5.1695663e-02  -5.4265708e-02   1.4979190e-02  -1.4777434e-02   1.5773008e-01   9.1786588e-03   8.8226799e-02   2.2636576e-02   3.5725205e-02  -4.4531956e-02   1.0993581e-01   2.6857819e-01   8.0302129e-02   1.0026632e-02   2.4759726e-01  -3.1563555e-01  -8.9692031e-03  -2.3375746e-02   8.7132113e-02  -3.3957503e-01   1.6335528e-01
   1.9149833e-05  -1.6285295e-03   5.4863300e-04  -3.3407357e-02   3.4422034e-02  -5.3007373e-02   2.7192791e-02  -8.9539894e-03   2.8841834e-02  -2.7900675e-02  -6.5218252e-02  -7.0607256e-02  -2.4767791e-03  -3.0820941e-02   1.2420331e-01   4.8981169e-02  -1.7379145e-01  -7.0900351e-02  -3.1262786e-02   9.7578999e-02  -3.9416671e-02  -2.9858477e-03   8.7298367e-04  -5.6577682e-02  -4.4684284e-02   6.5334976e-02   1.7935059e-01   1.7137772e-02  -8.6350210e-02
   1.1933727e-02  -4.9078960e-03  -2.4623570e-03   1.2440340e-02   1.9410260e-03   5.6601420e-03  -3.8771996e-02   3.9401156e-02  -2.7512172e-02   3.1898320e-02   4.6230099e-02   1.4306292e-02   2.2834431e-02   1.1569310e-01   3.4382789e-03  -7.1572901e-02   1.3519997e-01   7.8482830e-02   5.4409062e-02  -1.8382278e-01  -2.0583661e-02   1.3862848e-01  -3.0555068e-01   1.5374787e-02  -8.5150040e-02   1.7557795e-01   1.5646242e-01  -1.9341178e-01   3.1258318e-02
   8.1055186e-03   7.4321107e-03  -1.2032066e-02  -4.5255681e-03  -6.3352828e-03  -1.7363811e-02  -6.0569464e-03  -6.1478008e-03  -7.3355954e-02  -4.8105667e-02   4.8335502e-02   7.9280749e-02   4.2786416e-02   1.0543316e-01  -8.5804320e-02   1.3823480e-01   3.7344260e-03  -8.5091657e-02  -7.0868263e-02  -5.9958822e-03  -2.0445785e-02   9.5501991e-02  -2.4681625e-01  -3.2966026e-02  -4.7573583e-02  -1.2425243e-01  -1.0696101e-01  -6.3064158e-02  -8.0045013e-02
   4.2878291e-03   1.1732356e-02  -1.8439638e-02  -2.2389130e-02   2.3326919e-03  -5.2549305e-02  -1.5033630e-03  -1.5309948e-01   3.4532929e-02   1.8995773e-02   1.1534096e-01   3.8704354e-01   2.8998305e-01   1.2279917e-01   2.8159493e-02   1.8173863e-01   1.9785483e-01  -4.5710960e-01  -2.1402303e-01   6.2129155e-01   1.7656837e-02   5.7501944e-01  -2.9850514e-01  -5.3574521e-02  -1.5458688e-02   9.4299334e-02   3.2716963e-01  -2.9940529e-01  -1.2739179e-01
   2.6814851e-02  -1.1681859e-04  -2.3183116e-03   1.1051155e-01  -5.8089717e-03  -1.6261502e-03  -7.0752390e-02   3.7052171e-02   4.8207277e-02  -1.3902952e-01   8.5327795e-02  -1.1411424e-01  -8.0152136e-02   7.5971316e-02  -2.7002716e-02  -2.3386825e-01  -3.2938690e-02   2.2158082e-01  -3.1421232e-02  -3.7127261e-02   1.6190884e-01  -3.3698223e-01  -1.9145904e-01  -5.1450171e-01  -7.4432364e-03  -2.1266827e-01   3.9092415e-02  -3.5896638e-01   5.7805048e-02
  -1.5595991e-02  -1.5014974e-02   2.8101316e-02   3.5884128e-02   1.0960442e-03  -3.4852686e-02  -2.8780842e-02   1.9589778e-02  -1.1966421e-01  -5.3477476e-02  -3.3383034e-01  -4.1135768e-01  -4.5492466e-01  -3.2503143e-01   2.5587652e-02   2.5406613e-02   1.0533463e-01   4.3269440e-01   1.9403674e-01  -3.8884924e-01  -3.9636532e-01   1.7322598e-01  -3.2485415e-01   3.4890757e-01   5.5583633e-01   6.4332582e-02   1.3879484e-01   4.1799730e-01  -1.8340947e-01
  -6.1692095e-03   2.4661230e-02  -2.4960524e-02  -5.8376259e-02   3.2943036e-02   9.6727182e-02   5.6701202e-02   6.8619735e-02   9.4813205e-02   5.9882004e-02  -1.9261937e-02  -9.3228838e-02   6.7800072e-02  -2.2523444e-03   2.3042594e-01  -1.4786012e-02   9.5774125e-02  -1.9748516e-01   1.3245180e-01   3.1748274e-01   1.4520877e-01  -6.2022033e-01  -1.1255899e-01   1.9717388e-01   1.2115963e-01  -7.3903431e-02  -4.5432333e-01  -2.4914592e-01   4.6173246e-01
   5.3777970e-03  -1.0523688e-02  -4.9528415e-03  -1.4919070e-03   1.3561532e-02   2.6309145e-03   4.4059936e-04  -1.5623197e-03   9.0249370e-02   2.3023793e-03   4.1624179e-02   9.2229125e-02  -3.3155728e-02   5.9280767e-02   1.3681316e-02   8.6182112e-02  -5.1291990e-02  -1.0612659e-01  -2.0626961e-01  -8.8235002e-03  -6.3329850e-02  -3.7110370e-02   1.8187635e-01  -1.1341516e-01  -8.2872455e-02   2.2034849e-01   1.3280233e-01  -2.7386791e-02  -1.1076501e-01
  -3.4798698e-04  -1.8073235e-02   6.4381102e-03   1.1420443e-02   4.2881579e-02  -5.2667474e-02  -3.8827724e-02  -1.1259694e-01   3.2402452e-02  -1.1826343e-01   3.0296479e-02   2.4383526e-03   1.3132771e-02   9.1690509e-02   9.4394335e-02   3.5056737e-02  -2.8712479e-01   2.8042500e-01  -2.1688650e-02   1.5305984e-01  -2.3781597e-01  -1.2671849e-01  -9.8327888e-02  -2.4894687e-02  -4.7467419e-01  -8.1179325e-03  -1.0105922e-01  -5.6282377e-01  -5.5967524e-01
   4.6436040e-03  -1.4236863e-02  -1.3613417e-03   1.6553765e-02   2.2442639e-02   1.9476800e-02   4.4475814e-02   2.1784715e-02   5.4386217e-02  -1.7595842e-02  -3.7613669e-02   4.1492439e-03   1.5823099e-01  -2.2446757e-02   8.2997054e-02  -3.5371100e-02   4.8575191e-02  -8.4319396e-02   6.1447869e-02   2.0961080e-01   7.4883494e-02   7.7867012e-03   2.0745671e-01  -2.2506222e-01   3.4624919e-02  -4.4135476e-02   8.0481621e-02  -2.5596966e-01   3.0377599e-01
   4.4396648e-03   4.0523377e-03   2.2349665e-03  -3.5710893e-02   2.7580109e-02  -4.2664130e-02   2.3815968e-02  -1.6777895e-02   2.2490309e-02  -1.5804170e-02  -5.3942598e-02  -2.4085762e-02  -4.6222098e-02  -2.3550641e-04   1.3210855e-01   1.0334878e-01  -9.0082252e-02  -1.7627519e-01  -4.9607085e-02   7.2386973e-02   4.5780388e-02  -5.4044634e-02  -6.6296197e-02  -9.2377288e-02  -1.1007777e-01   9.1645426e-02   2.3760603e-01   4.4829728e-02  -1.3640402e-02
   1.7746766e-02  -7.0626183e-03   5.3207060e-03   6.4150371e-03   1.5083697e-04   2.1702290e-02  -2.9246561e-02   7.0814016e-02  -7.7054396e-03   1.8394016e-02   2.3356452e-02   5.7950282e-02   1.1029332e-02   1.8041689e-01   4.8444529e-02  -4.1178162e-02   1.6611822e-01   6.7774521e-02  -1.2471524e-02  -2.8807628e-01  -9.1042761e-02   1.5040052e-01  -1.9093461e-01  -3.7585961e-02  -1.3949189e-01   3.1384699e-01   1.6693446e-01  -1.6998395e-01   3.0778111e-02
   4.5828941e-03   9.5804594e-03  -8.0496069e-03  -1.1471213e-02  -1.7488553e-02   2.2082159e-03   3.6286446e-04  -3.1860654e-02  -3.5493658e-03  -7.1068795e-02   4.8528042e-02   2.3455947e-02  -3.0746271e-03   6.7966160e-02  -5.6426106e-02   1.4546765e-01   5.7647863e-02  -3.0412407e-02  -1.0949686e-01   4.0765308e-02  -2.7977727e-03   1.0110952e-01  -1.4138653e-01  -3.7009956e-02  -2.0638516e-02   6.1057514e-02  -5.5940486e-02   5.2809540e-03   9.0232610e-02
   6.3566349e-03   1.8166186e-02  -1.8063490e-02  -2.7503731e-02   1.2145387e-02  -3.1533819e-02   7.6820532e-03  -1.3561966e-01   3.9863596e-02   2.4463629e-02   1.6463912e-01   3.7109206e-01   2.9860361e-01   1.9169494e-01   2.9529589e-03   6.9906578e-02   1.1867767e-01  -4.8985618e-01  -2.3616173e-01   5.4270074e-01   3.0872281e-02   3.0206855e-01  -2.5269968e-01  -7.9818619e-02   3.5402704e-02  -1.4987002e-02   2.6857547e-01  -4.1380283e-01  -8.7614360e-02
   1.8671674e-02  -1.1423613e-02   1.0024748e-03   9.5362299e-02  -4.4168199e-04  -8.7761020e-03  -5.6814817e-02   2.6704091e-02   4.1519232e-02  -1.0682740e-01   6.0533919e-02  -1.0056399e-01  -8.9080178e-02   4.9950545e-02  -9.9428307e-02  -1.5413481e-01  -1.0963524e-01   2.2941432e-01   1.3007775e-02  -4.2275083e-02   8.9080624e-02  -1.9524350e-01  -1.1051375e-01  -4.1729417e-01   8.4940001e-02  -2.0890696e-01  -4.5092901e-02  -1.4591503e-01  -6.5141238e-02
  -2.0841015e-02  -1.2054866e-02   3.0735643e-02   4.1778673e-02   1.0152742e-02  -2.5871577e-02  -9.9329989e-03   4.0793752e-02  -1.0978957e-01  -2.2665943e-02  -2.9678279e-01  -3.8439938e-01  -4.3391866e-01  -3.3507137e-01   3.3072890e-02   4.4088227e-02   7.9330481e-02   5.1160655e-01   2.1256236e-01  -5.4901459e-01  -3.3323029e-01   1.1145497e-01  -2.3882957e-01   2.0159770e-01   4.2453911e-01   2.8612783e-02   7.2704064e-02   3.2734259e-01  -8.3560803e-03
  -3.3027665e-03   3.1674136e-02  -1.4941276e-02  -5.3054894e-02   2.0768424e-02   9.0962875e-02   4.7904583e-02   4.8016409e-02   9.9148844e-02   3.0067887e-02   5.7623496e-03   1.9951995e-02   1.0013206e-01  -3.3971815e-02   2.6511197e-01  -1.0822671e-04   1.6406758e-01  -1.2261141e-01   1.0894952e-01   1.8930149e-01   1.4851844e-01  -3.9441737e-01  -3.0997036e-02   6.5094931e-02   1.6745550e-01  -4.6908830e-02  -3.5250279e-01  -1.8019913e-01   3.0218164e-01
   7.0509236e-03  -8.7264948e-03  -8.8809008e-03  -9.1621329e-03   1.6306240e-02  -1.7241311e-02  -4.7407967e-03   4.2630235e-03   9.9413082e-02   1.0549882e-02   4.3509746e-02   9.6700941e-02   1.5255396e-02   2.1223782e-02   4.1186203e-02   7.0583648e-02  -1.3447342e-01  -1.3538000e-01  -1.8734348e-01   5.9975891e-02   2.6449599e-02  -1.2594819e-01   1.5091723e-01  -1.8459443e-01   1.0517560e-02   1.1899938e-01   2.1451236e-01   8.0883339e-02  -1.9536651e-02
  -6.3486744e-03  -1.5354454e-02   1.2127126e-02   7.3160975e-03   3.5115230e-02  -4.2807369e-02  -4.6829481e-02  -1.0912133e-01   4.4114123e-04  -1.1112551e-01   5.0139306e-03  -9.2793610e-03   2.0811333e-02   5.3247481e-02   8.1774909e-02   3.3063955e-02  -2.7063607e-01   2.7081995e-01  -9.6628539e-03   1.7639341e-01  -1.9174530e-01  -8.1551756e-02  -1.2488039e-01   3.8908868e-02  -4.1462690e-01  -2.9638278e-02  -1.7712775e-01  -3.5231700e-01  -4.8531741e-01
   5.8832667e-03  -1.1857277e-02  -7.0316475e-03   2.4436269e-02   2.2843100e-02   3.9374450e-02   8.0283265e-02   4.0740150e-02   5.5051209e-02   1.2114962e-02  -7.9794128e-02   1.8316156e-02   1.5721470e-01  -4.8561950e-02   8.1703802e-02  -8.1522523e-02   4.7373015e-02  -1.0336413e-01   2.1212336e-02   1.4626741e-01   5.7125648e-02   1.6341769e-02   1.6002302e-01  -1.3361294e-01   6.7412125e-02  -6.0561865e-02   5.9552636e-02  -1.6506318e-01   3.8813465e-01
   6.3816003e-03   7.6837979e-03   3.9229473e-03  -3.3747721e-02   1.9218310e-02  -3.3503423e-02   2.2229054e-02  -1.8251363e-02   8.5306012e-03  -6.1352528e-03  -4.5701891e-02   7.5758367e-03  -7.7478498e-02   1.2066990e-02   1.2923866e-01   1.3591834e-01  -2.8226136e-02  -2.3208780e-01  -5.4740843e-02   4.4731341e-02   9.3980446e-02  -7.7649168e-02  -1.0378416e-01  -8.5719436e-02  -1.3346119e-01   8.3525344e-02   2.3927445e-01   7.3960873e-02   3.1232884e-02
   1.9232811e-02  -8.9056265e-03   1.1731910e-02   2.5992591e-03  -5.9974243e-03   3.5131061e-02  -2.2426359e-02   8.3001466e-02   1.0795346e-02   9.8719799e-03   1.6197604e-02   8.3459733e-02   1.0055878e-03   2.1327949e-01   6.7347524e-02  -5.2274870e-03   1.9164460e-01   6.8339767e-02  -5.6643436e-02  -3.3555925e-01  -1.2410757e-01   1.6999423e-01  -9.3935397e-02  -6.6138094e-02  -1.6877454e-01   4.0179873e-01   1.2178685e-01  -1.4196166e-01   1.4445605e-02
   1.6922052e-03   1.0715311e-02  -4.4970970e-03  -1.7474569e-02  -2.5854392e-02   2.0862412e-02   5.2968225e-03  -5.0572567e-02   5.8324331e-02  -9.0661126e-02   4.4895990e-02  -2.7191176e-02  -4.4039897e-02   3.9899762e-02  -3.4395662e-02   1.3467987e-01   9.5664967e-02   1.9503060e-02  -1.4656301e-01   7.3208598e-02   2.8170696e-03   9.7923651e-02  -3.8908445e-02  -3.8055023e-02   7.0868104e-03   2.1050481e-01  -5.1631672e-03   4.2378947e-02   2.2337696e-01
   7.4378011e-03   2.1319416e-02  -1.7235158e-02  -3.0304027e-02   2.0092388e-02  -1.0820499e-02   1.6586396e-02  -1.0887195e-01   4.2350273e-02   2.3970081e-02   1.9752488e-01   3.2898615e-01   2.9285295e-01   2.3837880e-01  -2.5375018e-02  -3.7141029e-02   4.0331167e-02  -4.9958722e-01  -2.3722625e-01   4.5594604e-01   4.0232844e-02   4.3293067e-02  -1.9343371e-01  -9.2083894e-02   7.9079942e-02  -1.0345843e-01   1.8867698e-01  -4.7181273e-01  -4.1928840e-02
   1.0354906e-02  -2.0573655e-02   3.4399323e-03   7.4345685e-02   6.0759614e-03  -1.2773500e-02  -4.0393000e-02   1.5069379e-02   3.3614815e-02  -6.9144252e-02   3.1539000e-02  -7.9957180e-02  -9.1925593e-02   2.5212560e-02  -1.5070599e-01  -6.9850924e-02  -1.6599932e-01   2.1726169e-01   5.7535003e-02  -4.2612408e-02   1.3363483e-02  -5.4760507e-02  -2.2080148e-02  -3.0583763e-01   1.5445780e-01  -1.9736959e-01  -1.0383674e-01   5.5029005e-02  -1.5226335e-01
  -2.4133403e-02  -8.6994636e-03   3.1376009e-02   4.4289860e-02   1.6905748e-02  -1.3659496e-02   5.6218909e-03   5.0617509e-02  -9.6627759e-02   4.8673650e-03  -2.4736824e-01  -3.4131429e-01  -3.8550436e-01  -3.2685902e-01   4.6639973e-02   6.4332614e-02   5.0683794e-02   5.5139768e-01   2.2010201e-01  -6.5775894e-01  -2.5676099e-01   6.3510310e-02  -1.3933691e-01   5.2343184e-02   2.6474853e-01  -4.2081326e-03   1.4762831e-02   2.3897260e-01   1.5857613e-01
   1.3714033e-04   3.6698608e-02  -6.3457154e-03  -4.7668893e-02   6.5945141e-03   7.9356192e-02   3.9840320e-02   3.0206228e-02   9.5560226e-02  -4.3658830e-03   2.5947207e-02   1.2782328e-01   1.1797156e-01  -5.7059503e-02   2.6266674e-01  -3.1547957e-03   2.0278761e-01  -6.3080600e-02   6.8901733e-02   6.9107279e-02   1.4687529e-01  -1.8275570e-01   3.1869880e-02  -4.5748660e-02   2.0773612e-01  -7.0753352e-03  -2.2852517e-01  -9.8099907e-02   1.2044285e-01
   6.9824833e-03  -6.6675159e-03  -1.1372859e-02  -1.4030583e-02   1.7180477e-02  -2.9268280e-02  -7.9112528e-03   6.1521261e-03   9.5876797e-02   1.4734681e-02   4.1989654e-02   9.2709000e-02   5.8216568e-02  -9.5032174e-03   5.7167327e-02   6.5266663e-02  -1.8512445e-01  -1.5220883e-01  -1.4838272e-01   1.1518320e-01   8.8661521e-02  -1.8838464e-01   1.2173165e-01  -2.2481438e-01   7.3657162e-02   2.0519140e-02   2.2718252e-01   1.6192481e-01   4.6966628e-02
  -1.1162891e-02  -1.2267357e-02   1.8127440e-02   1.0692858e-03   2.8001019e-02  -3.3102709e-02  -5.3374250e-02  -1.0003176e-01  -2.7191156e-02  -9.7366765e-02  -1.9085360e-02  -1.8462558e-02   2.1907453e-02   1.7466624e-02   6.0506510e-02   3.2031748e-02  -2.5035497e-01   2.3861944e-01  -2.4813854e-03   1.8727527e-01  -1.4522251e-01  -5.8416994e-02  -1.4016262e-01   8.0716276e-02  -3.3616489e-01  -4.7341046e-02  -2.2504408e-01  -1.4959819e-01  -3.9828970e-01
   6.4679074e-03  -8.5219542e-03  -1.0949581e-02   3.0495040e-02   2.1399743e-02   5.2138569e-02   1.0303910e-01   5.4424381e-02   5.3511433e-02   3.3684247e-02  -1.0748791e-01   2.5140163e-02   1.5408057e-01  -6.7058371e-02   8.2760284e-02  -1.1382032e-01   3.5439145e-02  -1.0182822e-01  -6.9361433e-03   8.8429430e-02   3.3340709e-02   3.0904284e-02   1.0999482e-01  -5.1744066e-02   8.6610468e-02  -7.1925300e-02   3.0387210e-02  -7.9933228e-02   4.0951583e-01
   6.2125475e-03   9.1210686e-03   5.2327961e-03  -2.8864702e-02   1.1052992e-02  -2.6527828e-02   2.2383225e-02  -1.4820514e-02  -9.1567226e-03   1.5212782e-03  -4.0810063e-02   2.2779252e-02  -9.5145542e-02   6.6821353e-03   1.1677759e-01   1.4776890e-01   1.0035944e-02  -2.4395916e-01  -4.9982846e-02   1.6200105e-02   1.0728313e-01  -8.0449462e-02  -1.1198903e-01  -4.6730060e-02  -1.2046070e-01   4.8527904e-02   1.9747722e-01   9.7441411e-02   5.2602071e-02
   1.7204740e-02  -1.0400866e-02   1.5937120e-02   6.6232207e-04  -1.4061160e-02   4.4680475e-02  -1.8531399e-02   7.8029730e-02   2.7593279e-02   6.6782327e-03   2.3360113e-02   9.2272664e-02  -4.3427688e-03   2.1429280e-01   6.1410798e-02   2.8891287e-02   2.0564505e-01   7.5823352e-02  -7.9233865e-02  -3.2927641e-01  -1.2250675e-01   1.8826703e-01  -1.9274669e-02  -7.5695246e-02  -1.7006522e-01   4.3505938e-01   4.4298471e-02  -1.1361666e-01  -9.7564483e-03
  -2.4542391e-04   1.0824136e-02  -1.4951497e-03  -2.1839603e-02  -3.0659240e-02   3.6110302e-02   8.2369570e-03  -6.0849221e-02   1.0543172e-01  -1.0529506e-01   3.7546182e-02  -6.7291930e-02  -7.5919466e-02   2.3413457e-02  -2.1628586e-02   1.0995101e-01   1.1654782e-01   5.8600588e-02  -1.7724505e-01   8.9264116e-02  -1.2339436e-03   8.8013442e-02   4.7927623e-02  -3.5953396e-02   3.2026855e-02   3.1105228e-01   3.9930296e-02   4.8538083e-02   3.1188044e-01
   7.6983615e-03   2.1268885e-02  -1.6348245e-02  -3.1080732e-02   2.5416760e-02   7.7335960e-03   2.4208543e-02  -7.7653321e-02   4.2035873e-02   1.6892408e-02   2.1203718e-01   2.6811348e-01   2.7683519e-01   2.6119580e-01  -5.2050690e-02  -1.3282105e-01  -2.9375506e-02  -4.9047318e-01  -2.2034092e-01   3.7216790e-01   4.1847022e-02  -1.7778101e-01  -1.2923383e-01  -8.8750028e-02   1.1472304e-01  -1.5994986e-01   9.6733061e-02  -4.7463812e-01   3.7951802e-04
   2.5966213e-03  -2.7307644e-02   4.9807806e-03   5.0852359e-02   1.2494245e-02  -1.3307776e-02  -2.3855862e-02   3.8361814e-03   2.4397435e-02  -3.0542278e-02   1.9972748e-03  -5.6268407e-02  -8.9384081e-02   3.5775733e-03  -1.7901741e-01   9.6501766e-03  -1.9858559e-01   1.8765514e-01   9.8415709e-02  -3.8154557e-02  -5.5569785e-02   6.9513011e-02   6.3463777e-02  -1.9254994e-01   1.9545854e-01  -1.7892358e-01  -1.3426503e-01   2.2312033e-01  -2.0056336e-01
  -2.5432400e-02  -5.5905435e-03   3.0087987e-02   4.3609568e-02   2.0748688e-02  -1.2761333e-03   1.6053923e-02   5.0110022e-02  -8.1628149e-02   2.7740498e-02  -1.9300585e-01  -2.8761194e-01  -3.1996908e-01  -3.0386495e-01   6.0148900e-02   8.7118978e-02   2.0361214e-02   5.5449771e-01   2.1627860e-01  -7.1426511e-01  -1.7524088e-01   3.4322816e-02  -4.0473881e-02  -8.4838217e-02   9.0259110e-02  -3.5485340e-02  -2.8172422e-02   1.6219471e-01   3.0009005e-01
   3.7492971e-03   3.9641765e-02   1.9310832e-04  -4.2541315e-02  -7.4864703e-03   6.4201024e-02   3.2813289e-02   1.5381039e-02   8.6948108e-02  -3.8732371e-02   4.0530883e-02   2.2004135e-01   1.2086254e-01  -7.0823857e-02   2.2923707e-01  -2.3921543e-02   2.1087814e-01  -2.6352641e-02   1.8366353e-02  -3.0186495e-02   1.4151636e-01  -5.8030069e-03   7.1079721e-02  -1.2369405e-01   2.3887043e-01   3.9584200e-02  -9.8623018e-02  -1.3468467e-02  -6.4033739e-02
   5.3909747e-03  -4.6458680e-03  -1.2699268e-02  -1.6057992e-02   1.6537827e-02  -3.3901204e-02  -9.3408358e-03   3.0592267e-03   8.0980630e-02   1.5568624e-02   3.8814574e-02   8.0674837e-02   9.2462867e-02  -3.3302321e-02   6.0083349e-02   6.8237307e-02  -2.0549595e-01  -1.5682424e-01  -9.8755980e-02   1.5429666e-01   1.2008850e-01  -2.2521946e-01   9.7739994e-02  -2.3164956e-01   1.0742961e-01  -7.1571722e-02   1.8123909e-01   2.1036478e-01   8.8082208e-02
  -1.4538369e-02  -8.9814485e-03   2.3871565e-02  -6.9446281e-03   2.2098183e-02  -2.4640462e-02  -5.7259267e-02  -8.6905663e-02  -4.8836717e-02  -7.8977530e-02  -4.0067290e-02  -2.5787937e-02   1.6222251e-02  -1.3859969e-02   3.3698719e-02   3.4373319e-02  -2.2979198e-01   1.8587681e-01  -2.7460131e-04   1.8742607e-01  -1.0265956e-01  -5.7067634e-02  -1.4361975e-01   9.7565281e-02  -2.4957083e-01  -5.9848166e-02  -2.4598136e-01   3.1638090e-02  -3.0884035e-01
   6.4358657e-03  -4.7734224e-03  -1.2871598e-02   3.4058831e-02   1.8666530e-02   5.6873771e-02   1.1138250e-01   6.2034434e-02   4.9968933e-02   4.7696473e-02  -1.1945934e-01   2.3910626e-02   1.4777248e-01  -7.7773993e-02   8.3697950e-02  -1.3315542e-01   1.7005830e-02  -8.2375419e-02  -2.3054547e-02   4.2150436e-02   9.5649840e-03   4.6313511e-02   6.1090336e-02   1.4467028e-02   9.1092210e-02  -7.8398581e-02  -4.7095230e-04  -9.3929773e-03   3.7056154e-01
   4.6010934e-03   8.6366559e-03   5.9138506e-03  -2.2637642e-02   4.4373051e-03  -2.2171747e-02   2.3888108e-02  -8.5328128e-03  -2.6586510e-02   7.6281394e-03  -3.8451210e-02   2.3011939e-02  -1.0047765e-01  -1.2815396e-02   9.6686100e-02   1.4307288e-01   2.7049876e-02  -2.2353734e-01  -3.9624324e-02  -1.1369098e-02   9.3102237e-02  -7.1287498e-02  -9.6093281e-02   1.0997768e-02  -8.1693404e-02  -2.3623344e-03   1.2944991e-01   1.1059355e-01   5.6611064e-02
   1.2947354e-02  -1.1509695e-02   1.7626549e-02  -1.1544878e-04  -2.1741318e-02   5.0072982e-02  -1.7143736e-02   6.0559849e-02   4.2742201e-02   8.0607103e-03   4.0971490e-02   8.8291448e-02  -2.8751685e-03   1.8866243e-01   3.6458389e-02   5.5426936e-02   2.0393399e-01   8.4856760e-02  -8.3783604e-02  -2.7944334e-01  -9.3358644e-02   1.9672849e-01   3.2614696e-02  -7.4832337e-02  -1.4616556e-01   4.1760688e-01  -4.1394401e-02  -8.7358865e-02  -3.4059118e-02
  -1.1787479e-03   1.0082250e-02   8.5095244e-04  -2.4201851e-02  -3.1779570e-02   4.6252404e-02   9.0488042e-03  -6.2962323e-02   1.3459532e-01  -1.1382637e-01   2.6846614e-02  -9.4558914e-02  -9.6454421e-02   1.7737504e-02  -1.8207005e-02   7.6490594e-02   1.2157467e-01   8.3988746e-02  -1.9814297e-01   9.0307239e-02  -1.0880946e-02   7.3189414e-02   1.1135056e-01  -3.0715324e-02   5.1823752e-02   3.5832064e-01   7.5951559e-02   2.9926310e-02   3.5629045e-01
   7.3305318e-03   1.8465789e-02  -1.5658890e-02  -3.0194825e-02   2.7951985e-02   2.2734979e-02   2.9845198e-02  -4.5708163e-02   3.9271123e-02   3.7383969e-03   2.0849266e-01   1.9624372e-01   2.5357535e-01   2.6114693e-01  -7.3749714e-02  -2.1314451e-01  -8.5166077e-02  -4.6644232e-01  -1.8970625e-01   2.9773620e-01   3.3483316e-02  -3.4687336e-01  -6.7911408e-02  -7.0895009e-02   1.4279436e-01  -1.7880631e-01   1.9272737e-03  -4.2940968e-01   3.1503730e-02
  -4.1271586e-03  -3.1594321e-02   5.6886602e-03   2.7707841e-02   1.7792113e-02  -1.0753827e-02  -9.2685113e-03  -5.8316836e-03   1.4139621e-02   5.6561766e-03  -2.5194389e-02  -3.3323634e-02  -8.2440744e-02  -1.4622476e-02  -1.8569212e-01   7.6910925e-02  -2.0725928e-01   1.4427956e-01   1.3250970e-01  -2.8707709e-02  -1.1019471e-01   1.6727923e-01   1.3717115e-01  -8.6993085e-02   2.0679753e-01  -1.5409183e-01  -1.3850416e-01   3.4474914e-01  -2.1344340e-01
  -2.4883687e-02  -3.0801273e-03   2.7077982e-02   4.0202894e-02   2.1586343e-02   8.8897419e-03   2.0375549e-02   4.0762842e-02  -6.5974042e-02   4.5436156e-02  -1.3916184e-01  -2.2785595e-01  -2.4654536e-01  -2.6927983e-01   6.8728313e-02   1.1263272e-01  -1.0552197e-02   5.2593353e-01   2.0140189e-01  -7.2215512e-01  -9.5365120e-02   2.4772946e-02   4.6579624e-02  -2.0035358e-01  -8.5664995e-02  -6.6781368e-02  -5.2691713e-02   1.0131170e-01   4.0403063e-01
   7.1303130e-03   4.0593427e-02   4.3840181e-03  -3.7689074e-02  -1.9877645e-02   4.7643414e-02   2.6979602e-02   3.2340972e-03   7.5768663e-02  -6.9305427e-02   4.9788483e-02   2.8884476e-01   1.1055608e-01  -7.5785921e-02   1.7413331e-01  -5.8878623e-02   1.9125603e-01  -1.4369307e-02  -3.6010011e-02  -1.0110165e-01   1.3298114e-01   1.2480018e-01   8.5782050e-02  -1.6397609e-01   2.5803703e-01   8.6007283e-02   2.3744967e-02   6.3678700e-02  -2.3313431e-01
   2.7832876e-03  -2.9334084e-03  -1.3190588e-02  -1.5662384e-02   1.5018879e-02  -3.2649299e-02  -9.5026807e-03  -4.9159003e-03   5.7347968e-02   1.4143495e-02   3.5178045e-02   6.2424646e-02   1.1615159e-01  -5.1404861e-02   5.0770242e-02   7.5770526e-02  -2.0145306e-01  -1.5091618e-01  -4.8272668e-02   1.7590811e-01   1.2192244e-01  -2.4094105e-01   8.0877084e-02  -2.0789300e-01   1.1642921e-01  -1.5429807e-01   9.6068922e-02   2.2621536e-01   1.0790734e-01
  -1.6459815e-02  -5.6119003e-03   2.8922246e-02  -1.6026066e-02   1.7489623e-02  -1.8130179e-02  -5.7697498e-02  -7.1158600e-02  -6.4047265e-02  -5.7906323e-02  -5.6385116e-02  -3.2028124e-02   4.4260999e-03  -4.0165320e-02   4.2588267e-03   4.1225039e-02  -2.1124058e-01   1.1698614e-01  -1.8989268e-03   1.7954482e-01  -6.7024502e-02  -7.3483826e-02  -1.3546367e-01   9.0563180e-02  -1.6285020e-01  -6.7182029e-02  -2.4454752e-01   1.8279529e-01  -2.2506378e-01
   5.9268861e-03  -1.1282790e-03  -1.2980387e-02   3.4992394e-02   1.5308528e-02   5.3924557e-02   1.0620346e-01   6.3623772e-02   4.4944349e-02   5.5729716e-02  -1.1690209e-01   1.5391947e-02   1.3724933e-01  -8.2093050e-02   8.2120222e-02  -1.4195607e-01  -3.5206897e-03  -4.9347266e-02  -2.9500447e-02   1.0083899e-02  -9.4039408e-03   5.8058196e-02   1.6237178e-02   6.2630080e-02   8.1203340e-02  -8.0897753e-02  -2.7151526e-02   4.1664806e-02   2.8186833e-01
   2.3072484e-03   6.7956012e-03   5.8416170e-03  -1.6489410e-02   1.9950853e-04  -2.0393807e-02   2.6209267e-02  -1.4579893e-03  -4.0408187e-02   1.2472628e-02  -3.7129618e-02   1.1767557e-02  -9.6039284e-02  -4.0971620e-02   7.1536723e-02   1.2736338e-01   2.7521350e-02  -1.8462397e-01  -2.7798073e-02  -3.5709907e-02   6.1131859e-02  -5.8218556e-02  -6.3966203e-02   7.3473597e-02  -2.9534792e-02  -5.7363064e-02   5.2778693e-02   1.1167260e-01   4.9634624e-02
   7.8521241e-03  -1.2186527e-02   1.6950966e-02  -5.4663003e-04  -2.7315865e-02   5.1848805e-02  -1.7445241e-02   3.6451161e-02   5.6312612e-02   1.2484883e-02   6.3979958e-02   7.6347762e-02   6.3559454e-03   1.4491778e-01   8.4276133e-04   7.1189283e-02   1.8501440e-01   9.0341612e-02  -7.4740303e-02  -2.0013698e-01  -4.6093662e-02   1.8961188e-01   6.4133855e-02  -7.2357163e-02  -1.0419819e-01   3.5940027e-01  -1.1571526e-01  -6.3971200e-02  -5.2890723e-02
  -1.2505115e-03   8.8147359e-03   2.4330200e-03  -2.4493695e-02  -2.9617578e-02   5.0440220e-02   7.9271674e-03  -5.8359334e-02   1.4575779e-01  -1.1562182e-01   1.3506187e-02  -1.0908470e-01  -1.0497052e-01   2.0091189e-02  -2.2660698e-02   3.9709240e-02   1.1363650e-01   9.5361409e-02  -2.0726359e-01   7.9917819e-02  -2.1559481e-02   5.4802444e-02   1.4804424e-01  -2.2653944e-02   6.5440391e-02   3.5490385e-01   1.0142602e-01  -4.0094607e-03   3.6302519e-01
   6.5405948e-03   1.3634556e-02  -1.5281153e-02  -2.8019200e-02   2.7980744e-02   3.3353963e-02   3.3125782e-02  -1.5720695e-02   3.4536767e-02  -1.4126767e-02   1.8901984e-01   1.2096609e-01   2.2526861e-01   2.4122028e-01  -8.8151305e-02  -2.7603330e-01  -1.2391710e-01  -4.3095738e-01  -1.4989379e-01   2.3526880e-01   1.4582887e-02  -4.5784820e-01  -1.5714106e-02  -4.1940236e-02   1.6450091e-01  -1.5938514e-01  -8.7158195e-02  -3.4715304e-01   4.6081692e-02
  -9.5620660e-03  -3.3614730e-02   5.6783001e-03   7.1473842e-03   2.1253506e-02  -5.9493092e-03   1.7583071e-03  -1.3318340e-02   3.3251709e-03   3.7186530e-02  -4.8046571e-02  -1.4281510e-02  -7.1990470e-02  -3.0139587e-02  -1.7419542e-01   1.2703624e-01  -1.9452193e-01   9.1769139e-02   1.5751021e-01  -1.3988918e-02  -1.4565821e-01   2.3297992e-01   1.9236557e-01   3.7970221e-03   1.9065577e-01  -1.2313880e-01  -1.2173915e-01   4.1312650e-01  -1.9788939e-01
  -2.2766445e-02  -1.2792287e-03   2.2654611e-02   3.4746395e-02   1.9742177e-02   1.5236320e-02   1.8434646e-02   2.4484939e-02  -5.0601484e-02   5.8085313e-02  -8.9560334e-02  -1.6571850e-01  -1.7301014e-01  -2.2598257e-01   6.9124988e-02   1.4042791e-01  -4.0822931e-02   4.7260111e-01   1.7657945e-01  -6.8814108e-01  -2.2106507e-02   3.2385382e-02   1.1405338e-01  -2.8899428e-01  -2.5055287e-01  -9.9441628e-02  -5.8072577e-02   5.6693487e-02   4.6388591e-01
   9.9555789e-03   3.9809354e-02   6.2549215e-03  -3.2955736e-02  -2.9490782e-02   3.1472212e-02   2.2281192e-02  -6.7421334e-03   6.3988315e-02  -9.3481156e-02   5.4809862e-02   3.2937687e-01   9.0170892e-02  -7.3083543e-02   1.0794053e-01  -1.0237522e-01   1.4965197e-01  -2.4561464e-02  -8.8153060e-02  -1.4100727e-01   1.2149653e-01   2.0507423e-01   7.8509895e-02  -1.6791037e-01   2.6339180e-01   1.2492627e-01   1.2891314e-01   1.2507341e-01  -3.7178641e-01
  -1.7492339e-04  -1.7310834e-03  -1.3137456e-02  -1.3557953e-02   1.3343868e-02  -2.7591466e-02  -8.8687485e-03  -1.6570895e-02   2.8412350e-02   1.1575043e-02   3.1507128e-02   4.0685310e-02   1.2860580e-01  -6.5075457e-02   3.2012142e-02   8.3422930e-02  -1.8068298e-01  -1.3719802e-01  -5.6988393e-03   1.7959787e-01   9.8592216e-02  -2.4181519e-01   7.1664287e-02  -1.6032170e-01   1.0711230e-01  -2.2451332e-01  -5.0969058e-03   2.1389605e-01   1.1305935e-01
  -1.7084891e-02  -2.2591831e-03   3.2951199e-02  -2.5279802e-02   1.3964755e-02  -1.3967164e-02  -5.4322891e-02  -5.3977830e-02  -7.3322171e-02  -3.5941356e-02  -6.7031880e-02  -3.7949122e-02  -1.2061551e-02  -6.1844777e-02  -2.5154024e-02   5.2538097e-02  -1.9603741e-01   3.8067104e-02  -5.6518339e-03   1.6658499e-01  -4.0269378e-02  -1.0120656e-01  -1.1649938e-01   6.3989942e-02  -8.1566766e-02  -7.0384323e-02  -2.2712744e-01   2.9929765e-01  -1.5256132e-01
   5.1259291e-03   1.9600160e-03  -1.1798575e-02   3.3607523e-02   1.1978274e-02   4.4638239e-02   9.0099000e-02   5.9973531e-02   3.9192546e-02   5.9665848e-02  -1.0283549e-01   1.2957449e-03   1.2183816e-01  -8.2363384e-02   7.6378228e-02  -1.4299175e-01  -2.2216419e-02  -7.9936031e-03  -2.9374305e-02  -7.7523177e-03  -2.0520074e-02   6.2917812e-02  -2.2342907e-02   9.3133741e-02   5.8665265e-02  -8.0843430e-02  -4.5385267e-02   7.1657992e-02   1.5974041e-01
   2.3351293e-05   4.3072508e-03   5.0050591e-03  -1.1433599e-02  -1.3848079e-03  -2.0797801e-02   2.8824878e-02   4.7435946e-03  -4.8423953e-02   1.6045448e-02  -3.5184428e-02  -6.4246532e-03  -8.4799115e-02  -7.1543436e-02   4.4388659e-02   1.0627125e-01   1.7023653e-02  -1.4005207e-01  -1.7708404e-02  -5.4305652e-02   2.0882107e-02  -4.6555910e-02  -2.4198385e-02   1.2851253e-01   2.4335875e-02  -1.0600642e-01  -1.7194827e-02   1.0159568e-01   3.7516813e-02
   3.1297499e-03  -1.2385156e-02   1.4396595e-02  -1.3109908e-03  -2.9852532e-02   5.1042206e-02  -1.8482563e-02   1.1503449e-02   6.8108609e-02   1.8094048e-02   8.7349258e-02   6.0969903e-02   2.2961592e-02   9.2920750e-02  -3.6566406e-02   7.5746940e-02   1.5017733e-01   8.8387623e-02  -5.6503278e-02  -1.0637400e-01   9.4053804e-03   1.6487822e-01   7.9134331e-02  -7.5032170e-02  -5.3550194e-02   2.7379140e-01  -1.6661322e-01  -4.2983907e-02  -6.3863849e-02
  -7.1679584e-04   7.4443091e-03   3.1427115e-03  -2.2885385e-02  -2.4964897e-02   4.8677013e-02   5.3232013e-03  -4.9151597e-02   1.4121919e-01  -1.1062481e-01  -1.3912144e-03  -1.1250069e-01  -1.0197031e-01   2.6704888e-02  -3.2351981e-02   4.5388912e-03   9.6407350e-02   9.4269291e-02  -2.0384380e-01   6.2616559e-02  -2.9225456e-02   3.3787294e-02   1.5832544e-01  -1.2490445e-02   7.2919353e-02   3.0839258e-01   1.1631811e-01  -4.3021939e-02   3.4188809e-01
   5.5309740e-03   7.6536123e-03  -1.5190115e-02  -2.4901821e-02   2.6083404e-02   3.9362781e-02   3.4020525e-02   1.0649817e-02   2.8307265e-02  -3.4794576e-02   1.5697725e-01   4.9135767e-02   1.9353232e-01   2.0563720e-01  -9.3573536e-02  -3.2069770e-01  -1.4424069e-01  -3.8680921e-01  -1.0523667e-01   1.8468703e-01  -1.3871493e-02  -5.1125637e-01   2.3288986e-02  -6.9874139e-03   1.8126141e-01  -1.0532787e-01  -1.6314308e-01  -2.4083001e-01   4.1769547e-02
  -1.3641045e-02  -3.3733115e-02   5.1004271e-03  -9.1985342e-03   2.2499640e-02   7.0200372e-05   8.2032353e-03  -1.8465553e-02  -7.4959144e-03   6.2658425e-02  -6.5607465e-02  -1.2746845e-03  -5.8618273e-02  -4.4425125e-02  -1.4909566e-01   1.5817664e-01  -1.6464732e-01   3.5453143e-02   1.7216292e-01   6.0928541e-03  -1.5994354e-01   2.6552877e-01   2.2525849e-01   7.5080244e-02   1.5132536e-01  -8.6184501e-02  -9.0729373e-02   4.2759428e-01  -1.6186810e-01
  -1.9442919e-02  -1.2361658e-04   1.7195480e-02   2.8042523e-02   1.5850568e-02   1.6996784e-02   1.0851945e-02   3.5524319e-03  -3.6222480e-02   6.6241788e-02  -4.6523490e-02  -1.0406188e-01  -1.0546229e-01  -1.7655671e-01   5.9811662e-02   1.6961360e-01  -6.9107861e-02   4.0249347e-01   1.4370009e-01  -6.2075522e-01   4.1331965e-02   5.2225969e-02   1.5777625e-01  -3.4942289e-01  -3.9308566e-01  -1.3422560e-01  -4.5571942e-02   2.5980717e-02   4.7869668e-01
   1.2022009e-02   3.7670539e-02   6.1080240e-03  -2.8122750e-02  -3.5732107e-02   1.7010406e-02   1.8467542e-02  -1.5007379e-02   5.3057796e-02  -1.0984158e-01   5.7174455e-02   3.3975496e-01   6.3442742e-02  -6.4127096e-02   4.1002412e-02  -1.4783467e-01   9.3520298e-02  -5.1050570e-02  -1.3332682e-01  -1.5128408e-01   1.0732078e-01   2.3728472e-01   5.4396394e-02  -1.4167243e-01   2.5436458e-01   1.4978877e-01   2.1126900e-01   1.6502560e-01  -4.6904096e-01
  -2.8056277e-03  -1.1368054e-03  -1.2736612e-02  -1.0571964e-02   1.2126362e-02  -2.0951909e-02  -7.7644745e-03  -2.9844240e-02  -2.0866947e-03   8.7250879e-03   2.7526405e-02   1.8456693e-02   1.3007808e-01  -7.5097791e-02   7.8820712e-03   8.6961304e-02  -1.5117649e-01  -1.1886230e-01   2.2453491e-02   1.6608613e-01   5.6615733e-02  -2.3406340e-01   6.9308149e-02  -9.8196959e-02   8.6348865e-02  -2.7866140e-01  -9.9946663e-02   1.8096153e-01   1.1058926e-01
  -1.6674518e-02   9.7055636e-04   3.5724136e-02  -3.3759450e-02   1.1177404e-02  -1.2280053e-02  -4.7182030e-02  -3.6327855e-02  -7.7798995e-02  -1.4581993e-02  -7.1609609e-02  -4.4178105e-02  -3.1319606e-02  -7.9944360e-02  -5.2179590e-02   6.7336628e-02  -1.8469866e-01  -4.3924465e-02  -9.9753419e-03   1.5113006e-01  -2.3537182e-02  -1.3272240e-01  -8.8095596e-02   2.4253436e-02  -9.0338836e-03  -7.0959112e-02  -2.0039798e-01   3.7957142e-01  -9.4397507e-02
   4.2154364e-03   4.1333388e-03  -1.0077537e-02   3.0525743e-02   9.2285186e-03   3.1028496e-02   6.6724617e-02   5.2428782e-02   3.3606034e-02   6.1181219e-02  -8.1370354e-02  -1.6250847e-02   1.0144155e-01  -8.1203564e-02   6.5865521e-02  -1.3852111e-01  -3.6159737e-02   3.6176933e-02  -2.5292899e-02  -1.3060333e-02  -2.2573139e-02   5.9203065e-02  -5.3143309e-02   1.0820442e-01   2.6533163e-02  -7.9881415e-02  -5.3029204e-02   8.1623840e-02   2.3505026e-02
  -1.7280032e-03   1.8755160e-03   3.4875326e-03  -7.9653259e-03  -5.2414152e-04  -2.2761181e-02   3.1325286e-02   9.0863876e-03  -4.9829825e-02   1.8043236e-02  -3.1281786e-02  -2.6811785e-02  -6.9516121e-02  -9.8510476e-02   1.8610934e-02   8.4661114e-02   9.1179458e-04  -9.9607879e-02  -1.1320408e-02  -6.4885908e-02  -1.9915517e-02  -3.8059383e-02   1.5467031e-02   1.6714530e-01   7.0582353e-02  -1.4048903e-01  -6.8933349e-02   8.3153942e-02   2.5239641e-02
  -3.7717182e-04  -1.2076605e-02   1.0634585e-02  -2.8075406e-03  -2.9218778e-02   4.8815909e-02  -1.9403034e-02  -9.5335401e-03   7.7540017e-02   2.3190861e-02   1.0695666e-01   4.5575510e-02   4.5355733e-02   4.1998755e-02  -6.7986364e-02   7.1137892e-02   1.0315425e-01   7.6890962e-02  -3.2910314e-02  -1.1933924e-02   6.4221939e-02   1.2423496e-01   8.1798309e-02  -8.6228550e-02  -3.7682859e-03   1.7511266e-01  -1.9026051e-01  -2.3184240e-02  -6.7597984e-02
   1.2346242e-04   6.4250195e-03   2.8903842e-03  -1.9710565e-02  -1.8863721e-02   4.1761300e-02   1.8629007e-03  -3.7660787e-02   1.2476378e-01  -9.9401422e-02  -1.6433177e-02  -1.0717435e-01  -8.8728287e-02   3.3733751e-02  -4.3888058e-02  -2.4992597e-02   7.3675173e-02   8.3374687e-02  -1.8804069e-01   4.2749945e-02  -3.1102043e-02   1.0888765e-02   1.4515983e-01  -1.3734467e-03   7.4942106e-02   2.2938106e-01   1.2134383e-01  -7.8171091e-02   3.0367695e-01
   4.4795791e-03   1.4351023e-03  -1.5237705e-02  -2.1153126e-02   2.2990074e-02   4.1094359e-02   3.2811784e-02   3.2678861e-02   2.0978801e-02  -5.6121300e-02   1.1636176e-01  -1.3635086e-02   1.5963322e-01   1.5911468e-01  -8.8753630e-02  -3.4718541e-01  -1.4609891e-01  -3.3599678e-01  -5.9399356e-02   1.4423549e-01  -4.9593265e-02  -5.1271635e-01   4.7468716e-02   2.8056691e-02   1.9429040e-01  -2.3650264e-02  -2.2048410e-01  -1.2358993e-01   1.9299050e-02
  -1.6453437e-02  -3.2450952e-02   4.1234251e-03  -2.0312769e-02   2.1479166e-02   6.3038397e-03   9.7205911e-03  -2.1403609e-02  -1.7802240e-02   8.1417283e-02  -7.7984694e-02   4.7026619e-03  -4.2553415e-02  -5.9278496e-02  -1.1515839e-01   1.7154101e-01  -1.2277508e-01  -1.9007621e-02   1.7637438e-01   3.1141976e-02  -1.5369689e-01   2.6765440e-01   2.3512471e-01   1.2435399e-01   9.4264229e-02  -4.3266437e-02  -5.2918884e-02   3.9265558e-01  -1.1246991e-01
  -1.5317048e-02   5.5349208e-04   1.1116428e-02   2.0918662e-02   1.0740004e-02   1.4210829e-02  -1.0915078e-03  -1.9478996e-02  -2.3340504e-02   7.0680650e-02  -1.1361006e-02  -4.5067303e-02  -4.8257564e-02  -1.2335875e-01   4.0882925e-02   1.9900110e-01  -9.4044886e-02   3.2391156e-01   1.0530254e-01  -5.2924086e-01   9.3467895e-02   7.7895991e-02   1.7701580e-01  -3.8327283e-01  -5.0348856e-01  -1.7100220e-01  -1.7912569e-02   5.2677345e-03   4.5237711e-01
   1.3252863e-02   3.4624949e-02   4.4552631e-03  -2.2992915e-02  -3.8463483e-02   5.0987193e-03   1.5183057e-02  -2.1797902e-02   4.3910467e-02  -1.1811039e-01   5.8573243e-02   3.2087841e-01   3.4119302e-02  -5.0497278e-02  -1.7645498e-02  -1.8873058e-01   3.1067082e-02  -8.5953967e-02  -1.6845821e-01  -1.3631997e-01   9.0972633e-02   2.2843885e-01   2.0320594e-02  -9.4775520e-02   2.3165449e-01   1.5566940e-01   2.6880223e-01   1.8084216e-01  -5.1854757e-01
  -4.5544514e-03  -1.1314767e-03  -1.2078449e-02  -7.4714958e-03   1.1743092e-02  -1.4766281e-02  -6.2939967e-03  -4.2188118e-02  -3.0588839e-02   6.0448342e-03   2.2494648e-02  -1.5976356e-03   1.2156327e-01  -8.1581640e-02  -1.6976711e-02   8.3134927e-02  -1.2006177e-01  -9.9045351e-02   3.2724091e-02   1.3743665e-01   3.5490449e-03  -2.2242279e-01   7.1873447e-02  -3.1724759e-02   6.0432207e-02  -3.1294250e-01  -1.7082538e-01   1.3670377e-01   1.0644715e-01
  -1.5528070e-02   3.9633635e-03   3.7089491e-02  -4.0601915e-02   8.7642607e-03  -1.2971856e-02  -3.6708750e-02  -1.9010470e-02  -7.8940121e-02   5.0689524e-03  -7.0296634e-02  -5.1092257e-02  -5.1237034e-02  -9.5832429e-02  -7.4819686e-02   8.4018958e-02  -1.7700197e-01  -1.2219376e-01  -1.4045297e-02   1.3497398e-01  -1.7264761e-02  -1.6072011e-01  -5.2241747e-02  -2.1162728e-02   5.3287552e-02  -7.0296109e-02  -1.7014331e-01   4.2415438e-01  -5.1401024e-02
   3.3440539e-03   5.1566218e-03  -8.6715601e-03   2.6518144e-02   7.4623554e-03   1.5389980e-02   4.0124749e-02   4.2697469e-02   2.9110224e-02   6.1457154e-02  -5.6929796e-02  -3.5131812e-02   7.6606554e-02  -8.0800631e-02   5.0948127e-02  -1.2986720e-01  -4.3760151e-02   7.7906004e-02  -1.8672191e-02  -8.3814312e-03  -1.5939662e-02   4.6668192e-02  -7.5417210e-02   1.1105064e-01  -1.0889914e-02  -7.9611709e-02  -5.0109408e-02   7.4559420e-02  -1.0730560e-01
  -2.6391969e-03   6.9941245e-05   1.4420621e-03  -6.0912626e-03   2.2128057e-03  -2.5565162e-02   3.3448910e-02   1.1342574e-02  -4.5164177e-02   1.7969916e-02  -2.4772891e-02  -4.5051564e-02  -5.2476365e-02  -1.1691043e-01  -2.4375360e-03   6.6040464e-02  -1.6316539e-02  -6.9095089e-02  -9.5185185e-03  -6.6088719e-02  -5.5968867e-02  -3.1206167e-02   4.9130249e-02   1.8435105e-01   1.0311290e-01  -1.5621554e-01  -9.5407204e-02   5.9987117e-02   1.6609727e-02
  -2.2728986e-03  -1.1271883e-02   6.3757558e-03  -5.0892273e-03  -2.5934730e-02   4.6140356e-02  -1.9631306e-02  -2.3600038e-02   8.3646403e-02   2.6650086e-02   1.2010919e-01   3.2138097e-02   7.1095409e-02  -5.4810358e-04  -8.7780134e-02   6.1244989e-02   4.9474007e-02   5.5753570e-02  -7.0905197e-03   7.1947474e-02   1.1128509e-01   7.2361663e-02   7.5881567e-02  -1.0554118e-01   3.7181616e-02   7.6702910e-02  -1.8992352e-01  -3.1844429e-03  -6.6635658e-02
   9.7698871e-04   6.1636111e-03   1.6327839e-03  -1.5384142e-02  -1.2470614e-02   3.1178049e-02  -1.7256513e-03  -2.6049810e-02   1.0079060e-01  -8.3149749e-02  -3.0031808e-02  -9.5603336e-02  -6.6944888e-02   3.7906254e-02  -5.3483475e-02  -4.5948735e-02   4.8888926e-02   6.5818815e-02  -1.6051826e-01   2.3666599e-02  -2.6127306e-02  -1.3032015e-02   1.1319699e-01   9.2020082e-03   7.2328740e-02   1.2970269e-01   1.1720701e-01  -1.0336320e-01   2.5826721e-01
   3.5228677e-03  -4.1811602e-03  -1.5183488e-02  -1.7050817e-02   1.9448727e-02   3.9320546e-02   3.0022299e-02   5.0419457e-02   1.2863814e-02  -7.5994196e-02   7.1300964e-02  -6.3386225e-02   1.2467764e-01   1.0624862e-01  -7.2798252e-02  -3.5614420e-01  -1.3050415e-01  -2.7974116e-01  -1.5172126e-02   1.1139943e-01  -8.9320054e-02  -4.7129472e-01   5.7503601e-02   5.7425187e-02   2.0432832e-01   7.6265217e-02  -2.5600000e-01  -7.3381031e-03  -1.7966543e-02
  -1.8211569e-02  -3.0341872e-02   2.9030306e-03  -2.5784937e-02   1.8424297e-02   1.1929742e-02   6.6433716e-03  -2.2369356e-02  -2.7132487e-02   9.3457368e-02  -8.6177083e-02   3.6787315e-03  -2.3779575e-02  -7.6474714e-02  -7.6698640e-02   1.7082391e-01  -7.4121411e-02  -6.6110128e-02   1.7112871e-01   6.0100760e-02  -1.2979843e-01   2.4489350e-01   2.2394166e-01   1.5140282e-01   2.5541572e-02   5.6259677e-03  -1.5944224e-02   3.1682606e-01  -5.5068988e-02
  -1.0803279e-02   9.5259622e-04   4.8401106e-03   1.4125031e-02   5.3157681e-03   7.6155254e-03  -1.5615124e-02  -4.1913554e-02  -1.2254087e-02   7.2244905e-02   1.5276334e-02   9.5929888e-03  -4.0701444e-03  -6.8607161e-02   1.3773051e-02   2.2716795e-01  -1.1438716e-01   2.4468742e-01   6.4342844e-02  -4.2265153e-01   1.3437210e-01   1.0251107e-01   1.7396110e-01  -3.9400399e-01  -5.7390694e-01  -2.0853942e-01   2.1038864e-02  -9.8610874e-03   3.9253218e-01
   1.3675711e-02   3.1124297e-02   1.9385615e-03  -1.7448669e-02  -3.7940143e-02  -3.8585408e-03   1.2079852e-02  -2.7042450e-02   3.6994603e-02  -1.1899917e-01   6.0455598e-02   2.7603674e-01   5.5151353e-03  -3.3983644e-02  -6.0963517e-02  -2.1938412e-01  -2.9614784e-02  -1.2071947e-01  -1.9210957e-01  -1.0242992e-01   7.3328189e-02   1.8873488e-01  -1.6031252e-02  -3.8377485e-02   1.9702619e-01   1.4004747e-01   3.0218324e-01   1.7284814e-01  -5.1858614e-01
  -5.0944744e-03  -1.5869781e-03  -1.1166559e-02  -4.8257892e-03   1.2277190e-02  -1.0647002e-02  -4.3391305e-03  -5.0998043e-02  -5.4134041e-02   3.5654442e-03   1.5509144e-02  -1.7631156e-02   1.0465790e-01  -8.4078071e-02  -3.7997889e-02   7.0232219e-02  -9.2798544e-02  -8.0376661e-02   2.5013536e-02   9.7122150e-02  -5.2941323e-02  -2.0929105e-01   7.6564539e-02   2.9367877e-02   3.4534448e-02  -3.2376016e-01  -2.0705291e-01   9.0756510e-02   1.0469017e-01
  -1.3930944e-02   6.6096466e-03   3.6970857e-02  -4.5129756e-02   6.4208835e-03  -1.5759563e-02  -2.3678451e-02  -2.7601919e-03  -7.8258523e-02   2.2358345e-02  -6.3721822e-02  -5.8750099e-02  -6.9816576e-02  -1.1088540e-01  -9.1499578e-02   1.0065833e-01  -1.7207338e-01  -1.9102054e-01  -1.8139649e-02   1.1896707e-01  -2.1272869e-02  -1.7907800e-01  -1.1623568e-02  -6.4678783e-02   1.0527638e-01  -6.9225393e-02  -1.4044372e-01   4.3497050e-01  -2.2709277e-02
   2.6129883e-03   4.9378363e-03  -8.4063538e-03   2.2351832e-02   6.9142713e-03  -7.1316599e-05   1.4126791e-02   3.2617258e-02   2.6547379e-02   6.1101744e-02  -3.3531049e-02  -5.3507572e-02   4.8487165e-02  -8.2333642e-02   3.2663635e-02  -1.1738824e-01  -4.4839593e-02   1.1257531e-01  -9.5438054e-03   3.5971454e-03  -2.1529959e-03   2.6224219e-02  -8.9173912e-02   1.0515744e-01  -4.8314117e-02  -8.1359570e-02  -3.8419312e-02   5.4820891e-02  -2.1552904e-01
  -2.6143188e-03  -7.6616383e-04  -9.3680581e-04  -5.4595695e-03   6.0406673e-03  -2.8515845e-02   3.5068229e-02   1.1937504e-02  -3.6004371e-02   1.5270489e-02  -1.5840205e-02  -5.7672657e-02  -3.5522278e-02  -1.2342380e-01  -1.5848818e-02   5.2198778e-02  -3.1260716e-02  -5.0402704e-02  -1.2565143e-02  -5.8071400e-02  -8.4304028e-02  -2.2298496e-02   7.3109066e-02   1.7919793e-01   1.1928836e-01  -1.5167655e-01  -9.4171864e-02   3.5550111e-02   1.3828625e-02
  -2.5856285e-03  -1.0039815e-02   2.2520995e-03  -7.8794906e-03  -2.0932757e-02   4.3576324e-02  -1.8973516e-02  -2.9588365e-02   8.5259271e-02   2.8191656e-02   1.2569142e-01   2.1291118e-02   9.7305503e-02  -3.0369607e-02  -9.3006143e-02   5.0927995e-02  -4.3581765e-03   2.6748949e-02   1.8380688e-02   1.3708306e-01   1.4572222e-01   1.5626597e-02   6.4349495e-02  -1.2923263e-01   6.4058231e-02  -1.0499682e-02  -1.7359384e-01   1.8052428e-02  -6.3973925e-02
   1.5855126e-03   6.9417290e-03  -5.9947097e-04  -1.0333042e-02  -6.9226805e-03   1.8920396e-02  -4.6850060e-03  -1.6053189e-02   7.3564343e-02  -6.3645988e-02  -4.0646613e-02  -8.0045547e-02  -3.8522751e-02   3.6903040e-02  -5.7363650e-02  -5.6548580e-02   2.4873543e-02   4.4748322e-02  -1.2211032e-01   7.2694339e-03  -1.5037018e-02  -3.6758131e-02   6.7913348e-02   1.7591574e-02   6.5654592e-02   2.1040584e-02   1.0399786e-01  -1.1611864e-01   2.1325832e-01
   2.7488345e-03  -8.5087636e-03  -1.4738163e-02  -1.2850506e-02   1.6118384e-02   3.5069071e-02   2.6303331e-02   6.4474445e-02   4.2350484e-03  -9.2536845e-02   2.5689890e-02  -9.8052716e-02   8.9759809e-02   5.1099882e-02  -4.5289114e-02  -3.4876216e-01  -9.9329074e-02  -2.1865118e-01   2.5510834e-02   8.3652774e-02  -1.2922217e-01  -3.9799604e-01   5.5909550e-02   7.6343498e-02   2.1148963e-01   1.8367235e-01  -2.6910076e-01   9.8307919e-02  -6.4839119e-02
  -1.9204957e-02  -2.7969627e-02   1.5417040e-03  -2.5774799e-02   1.3784547e-02   1.6342575e-02  -1.1572301e-04  -2.1580974e-02  -3.5068489e-02   9.9356738e-02  -9.1687384e-02  -3.5266993e-03  -2.2559279e-03  -9.7301321e-02  -3.7273980e-02   1.6114037e-01  -2.3433850e-02  -1.0108217e-01   1.5818736e-01   9.1256406e-02  -9.2783790e-02   2.0437057e-01   1.9557023e-01   1.5829666e-01  -4.8401160e-02   6.0435937e-02   1.2838652e-02   2.1141535e-01   6.5515040e-03
  -6.3023145e-03   1.2519874e-03  -1.2368513e-03   8.2483299e-03   4.5114887e-04  -1.5361018e-03  -3.0643960e-02  -6.1115903e-02  -3.0537589e-03   7.1748007e-02   3.3145190e-02   5.8574409e-02   2.5955066e-02  -1.4442017e-02  -1.9162660e-02   2.5244152e-01  -1.2917254e-01   1.7146354e-01   2.3884344e-02  -3.0918706e-01   1.6536754e-01   1.1957271e-01   1.5290844e-01  -3.8570285e-01  -5.9875681e-01  -2.4444037e-01   6.6518368e-02  -2.3525103e-02   3.0895600e-01
   1.3388149e-02   2.7568360e-02  -7.5734065e-04  -1.1488878e-02  -3.4727007e-02  -9.8159596e-03   8.9177467e-03  -3.0377984e-02   3.2342155e-02  -1.1396219e-01   6.3768068e-02   2.1041011e-01  -1.9774667e-02  -1.6642530e-02  -8.4318746e-02  -2.3559984e-01  -8.1320619e-02  -1.4740185e-01  -2.0422762e-01  -5.6803257e-02   5.5593440e-02   1.3002853e-01  -4.7155048e-02   1.6414699e-02   1.5298998e-01   1.0331896e-01   3.1368324e-01   1.4407772e-01  -4.7180428e-01
  -4.3806882e-03  -2.2940362e-03  -9.9573364e-03  -2.9246401e-03   1.3534994e-02  -9.6485623e-03  -1.6314603e-03  -5.4039105e-02  -7.0676873e-02   1.0327567e-03   5.8041184e-03  -2.8880415e-02   8.1431581e-02  -8.1914171e-02  -5.1240108e-02   4.8352492e-02  -7.2717465e-02  -6.4677609e-02   2.3585087e-03   4.9825822e-02  -1.0586394e-01  -1.9455946e-01   8.0112670e-02   7.7045653e-02   1.2545126e-02  -3.0832960e-01  -2.0568187e-01   5.1806831e-02   1.0735182e-01
  -1.2117923e-02   8.8257531e-03   3.5364534e-02  -4.6911618e-02   3.9401096e-03  -2.0215311e-02  -9.1427057e-03   1.1655023e-02  -7.7108745e-02   3.7065649e-02  -5.2776596e-02  -6.6860346e-02  -8.5409869e-02  -1.2621061e-01  -1.0112715e-01   1.1528449e-01  -1.6853108e-01  -2.4641470e-01  -2.3733086e-02   1.0312548e-01  -3.4881600e-02  -1.8349695e-01   3.0356926e-02  -9.9469561e-02   1.4760885e-01  -6.7811604e-02  -1.1325815e-01   4.1480979e-01  -6.4015565e-03
   2.0783290e-03   3.5374262e-03  -9.9507846e-03   1.8663961e-02   7.6525132e-03  -1.3537298e-02  -8.1361698e-03   2.3907111e-02   2.6552847e-02   6.0243373e-02  -1.4220026e-02  -6.9899193e-02   1.8729119e-02  -8.5633308e-02   1.2324574e-02  -1.0076650e-01  -4.0455301e-02   1.3649720e-01   3.1427998e-03   2.0452851e-02   1.6573013e-02  -4.2053960e-04  -9.5076200e-02   9.3772662e-02  -7.9974761e-02  -8.6005480e-02  -2.0790379e-02   2.7580142e-02  -2.8842999e-01
  -1.7302152e-03  -5.5974157e-04  -3.4395358e-03  -5.5376753e-03   1.0095191e-02  -3.1042391e-02   3.6146811e-02   1.1684372e-02  -2.4492453e-02   9.4434189e-03  -5.4079720e-03  -6.2363448e-02  -2.0241134e-02  -1.1666116e-01  -1.9646390e-02   4.3098524e-02  -4.1580699e-02  -4.2266909e-02  -2.0609750e-02  -4.2859912e-02  -1.0364547e-01  -7.0484240e-03   8.5777450e-02   1.5447638e-01   1.1952255e-01  -1.2792212e-01  -6.7013869e-02   1.2291925e-02   1.7070306e-02
  -1.6668014e-03  -8.5137745e-03  -1.2629145e-03  -1.0655703e-02  -1.5290826e-02   4.1196860e-02  -1.7638295e-02  -2.8253762e-02   8.1263968e-02   2.8450235e-02   1.2401153e-01   1.2741330e-02   1.2108859e-01  -4.6348359e-02  -8.3523031e-02   4.5030411e-02  -5.1743878e-02  -6.9194855e-03   4.1165822e-02   1.7826195e-01   1.6476906e-01  -3.9363598e-02   4.9377325e-02  -1.5130847e-01   7.4787312e-02  -7.8775859e-02  -1.5106871e-01   4.0785164e-02  -6.1711494e-02
   1.7478638e-03   8.8583725e-03  -3.6832353e-03  -4.9616889e-03  -3.2058333e-03   7.2240118e-03  -6.3197265e-03  -8.8151579e-03   4.6683493e-02  -4.3107214e-02  -4.6999281e-02  -6.2327484e-02  -5.4988766e-03   2.9563527e-02  -5.2352030e-02  -5.6244610e-02   3.6232902e-03   2.2980920e-02  -7.3791068e-02  -6.0398806e-03  -3.6198430e-05  -5.8657928e-02   1.4904086e-02   2.2298793e-02   5.5130199e-02  -8.6042857e-02   8.1018560e-02  -1.1743986e-01   1.7310506e-01
   2.2028135e-03  -1.1066307e-02  -1.3613253e-02  -8.7912775e-03   1.3492210e-02   2.9415793e-02   2.2298184e-02   7.5710603e-02  -4.6108570e-03  -1.0425254e-01  -1.7015388e-02  -1.1749025e-01   5.6066531e-02  -2.9863307e-03  -6.4887328e-03  -3.2678827e-01  -5.5209201e-02  -1.5302404e-01   6.1380545e-02   5.8974288e-02  -1.6537210e-01  -3.0442254e-01   4.6360438e-02   8.1644596e-02   2.1516622e-01   2.8736993e-01  -2.6159515e-01   1.8663765e-01  -1.1525713e-01
  -1.9736572e-02  -2.5797873e-02   4.9392877e-05  -2.0935380e-02   8.1493695e-03   1.9108285e-02  -9.2553508e-03  -1.9212041e-02  -4.1203169e-02   1.0018803e-01  -9.5968208e-02  -1.5499895e-02   2.1814652e-02  -1.2199097e-01   2.8107409e-04   1.4773482e-01   2.5257970e-02  -1.2044696e-01   1.3962131e-01   1.2240566e-01  -4.8211316e-02   1.5357485e-01   1.5470917e-01   1.4916446e-01  -1.2087181e-01   1.2073028e-01   2.7132315e-02   8.9340888e-02   6.9435111e-02
  -2.1788213e-03   1.5704269e-03  -6.7755152e-03   3.6551549e-03  -3.1050671e-03  -1.1705310e-02  -4.4047073e-02  -7.4767188e-02   4.3763822e-03   6.9923197e-02   4.2289991e-02   1.0072341e-01   4.1993040e-02   3.7089323e-02  -5.5153163e-02   2.7285166e-01  -1.3791177e-01   1.0908700e-01  -1.3253727e-02  -1.9578548e-01   1.8860326e-01   1.2367621e-01   1.1927796e-01  -3.6202716e-01  -5.7506877e-01  -2.7528026e-01   1.1318786e-01  -3.9003577e-02   2.1206075e-01
   1.2523763e-02   2.4265378e-02  -2.9894618e-03  -5.2466006e-03  -2.9598270e-02  -1.2998176e-02   5.6271262e-03  -3.1256295e-02   2.9666850e-02  -1.0489472e-01   6.8819034e-02   1.3054788e-01  -4.0009845e-02  -7.8343393e-04  -8.5690972e-02  -2.3511700e-01  -1.1841126e-01  -1.5977755e-01  -2.0578036e-01  -6.5797848e-03   3.9171523e-02   6.4407796e-02  -6.6679721e-02   6.0060288e-02   1.0242118e-01   4.8943742e-02   3.0621239e-01   9.9721561e-02  -3.8473440e-01
  -2.6436191e-03  -3.0015512e-03  -8.4075063e-03  -1.7668875e-03   1.5122248e-02  -1.2229105e-02   2.1093485e-03  -4.9826997e-02  -7.9255135e-02  -1.8564596e-03  -6.9858254e-03  -3.5651897e-02   5.4263331e-02  -7.4594153e-02  -5.3902018e-02   1.9326380e-02  -6.0893526e-02  -5.2859850e-02  -2.9841776e-02   9.4945055e-04  -1.4950744e-01  -1.7611981e-01   7.9229330e-02   1.0590253e-01  -2.8107583e-03  -2.6535911e-01  -1.7077425e-01   2.6513132e-02   1.1467645e-01
  -1.0255139e-02   1.0576823e-02   3.2343053e-02  -4.5779280e-02   1.2211936e-03  -2.5804117e-02   5.6580660e-03   2.3369698e-02  -7.6555790e-02   4.9317394e-02  -3.8422136e-02  -7.4793278e-02  -9.6840706e-02  -1.4244777e-01  -1.0312296e-01   1.2614240e-01  -1.6470117e-01  -2.8639103e-01  -3.3292344e-02   8.6945414e-02  -5.7070237e-02  -1.7174101e-01   6.9711693e-02  -1.2015571e-01   1.8126511e-01  -6.5418293e-02  -8.8405150e-02   3.6700904e-01  -3.4279774e-05
   1.7615876e-03   1.1617765e-03  -1.3701322e-02   1.5879794e-02   9.5912658e-03  -2.3761216e-02  -2.4525312e-02   1.7932258e-02   2.9431325e-02   5.8726078e-02  -7.4068366e-04  -8.3139949e-02  -1.0689271e-02  -8.9182043e-02  -8.7970385e-03  -7.9482479e-02  -3.2478395e-02   1.4714705e-01   2.0900623e-02   4.0139462e-02   3.7750520e-02  -3.1078885e-02  -9.4216549e-02   7.9589257e-02  -1.0041588e-01  -9.3857327e-02  -2.6690072e-04  -1.7084712e-03  -3.1900554e-01
  -1.7303012e-04   5.0356062e-04  -5.8608349e-03  -5.7955266e-03   1.3552055e-02  -3.2768061e-02   3.6679236e-02   1.1427601e-02  -1.2787850e-02   1.1851318e-04   5.1650929e-03  -5.8059266e-02  -8.1693598e-03  -9.7103858e-02  -1.3283162e-02   3.7016310e-02  -4.5867936e-02  -4.1396439e-02  -3.4090693e-02  -2.4297299e-02  -1.1360491e-01   1.7760359e-02   8.7067947e-02   1.1593044e-01   1.0646264e-01  -8.7931947e-02  -1.9236097e-02  -8.7386151e-03   2.4217474e-02
  -4.8095877e-05  -6.8858608e-03  -3.8912996e-03  -1.2773562e-02  -9.9969851e-03   3.8658405e-02  -1.6167437e-02  -2.1840323e-02   7.0904012e-02   2.8803976e-02   1.1643451e-01   5.8044824e-03   1.3986013e-01  -5.0307149e-02  -6.1694061e-02   4.7421394e-02  -8.6828346e-02  -4.1258844e-02   5.8895327e-02   1.9290409e-01   1.6738117e-01  -8.7052078e-02   3.2614683e-02  -1.6498680e-01   7.0220198e-02  -1.2390201e-01  -1.3118422e-01   6.4202662e-02  -6.0139679e-02
   1.3377382e-03   1.1801203e-02  -7.3979677e-03   3.5266798e-04  -2.0319485e-03  -1.7578367e-03  -6.0969683e-03  -4.8341211e-03   2.2797022e-02  -2.3980243e-02  -4.8249148e-02  -4.3801723e-02   2.9913167e-02   1.5946117e-02  -3.6543120e-02  -4.5800955e-02  -1.3822123e-02   2.8209065e-03  -1.6946952e-02  -1.7066724e-02   1.5831570e-02  -7.6807435e-02  -4.0591922e-02   2.2278354e-02   4.0733330e-02  -1.8266364e-01   4.7114789e-02  -1.1090575e-01   1.3887008e-01
   1.9032754e-03  -1.1601544e-02  -1.1568154e-02  -5.0894913e-03   1.1851002e-02   2.3297716e-02   1.8508436e-02   8.4946048e-02  -1.3302292e-02  -1.1011670e-01  -5.3881087e-02  -1.2327190e-01   2.4938228e-02  -5.3366652e-02   4.2448858e-02  -2.9251418e-01  -1.4831142e-03  -8.3226325e-02   9.1566480e-02   3.6092030e-02  -1.9423641e-01  -2.0163297e-01   3.2957307e-02   7.2057265e-02   2.1392840e-01   3.7647244e-01  -2.3709772e-01   2.5403750e-01  -1.6314192e-01
  -2.0047305e-02  -2.4108131e-02  -1.6778092e-03  -1.2295779e-02   2.1679627e-03   1.9891648e-02  -1.9326830e-02  -1.5461043e-02  -4.5131133e-02   9.7364789e-02  -9.9835755e-02  -3.0304032e-02   4.7743123e-02  -1.4914795e-01   3.3591850e-02   1.3481025e-01   6.8642906e-02  -1.2246276e-01   1.1730938e-01   1.5109211e-01  -2.0489540e-03   9.9363005e-02   1.0593233e-01   1.2963513e-01  -1.8514342e-01   1.8517313e-01   2.2837068e-02  -3.5967169e-02   1.3052923e-01
   1.2621916e-03   1.9498104e-03  -1.1519972e-02   4.7227042e-04  -4.7998868e-03  -2.1311294e-02  -5.3887532e-02  -8.1149886e-02   1.0340574e-02   6.7399972e-02   4.3042207e-02   1.3503336e-01   4.5300237e-02   8.4134349e-02  -9.1539885e-02   2.8612561e-01  -1.4076347e-01   6.0182621e-02  -4.4840517e-02  -8.7976778e-02   2.0654296e-01   1.1103489e-01   7.8631996e-02  -3.2546564e-01  -5.0284251e-01  -2.9696949e-01   1.5563106e-01  -5.8444267e-02   1.1149551e-01
   1.1225406e-02   2.1411409e-02  -4.2284870e-03   1.0112088e-03  -2.3427934e-02  -1.3808422e-02   2.3277146e-03  -2.9113085e-02   2.8476615e-02  -9.3817542e-02   7.5264573e-02   4.3874518e-02  -5.4302591e-02   1.1150644e-02  -6.5692659e-02  -2.1782975e-01  -1.3735172e-01  -1.5419169e-01  -1.9835186e-01   4.1862686e-02   2.5446758e-02   2.9759968e-03  -7.0157361e-02   8.5757149e-02   4.8160539e-02  -1.6809416e-02   2.8264343e-01   4.6409987e-02  -2.6709563e-01
  -3.2512981e-04  -3.4607759e-03  -6.5176268e-03  -1.1137319e-03   1.6553997e-02  -1.8282114e-02   7.0030093e-03  -3.7933852e-02  -7.9997713e-02  -5.2010590e-03  -2.2624942e-02  -3.9045856e-02   2.5628179e-02  -6.2153566e-02  -4.4793586e-02  -1.3686190e-02  -5.6303925e-02  -4.5000526e-02  -6.5002611e-02  -4.4096063e-02  -1.7985886e-01  -1.5088668e-01   7.1101349e-02   1.1374503e-01  -9.7482661e-03  -1.9572516e-01  -1.1153446e-01   1.8666830e-02   1.2550392e-01
  -8.4432431e-03   1.1890442e-02   2.8063440e-02  -4.1804957e-02  -1.7400718e-03  -3.1909483e-02   1.9408143e-02   3.1435052e-02  -7.7325996e-02   5.9450274e-02  -2.1560564e-02  -8.1661153e-02  -1.0339701e-01  -1.5970299e-01  -9.7364941e-02   1.3193133e-01  -1.5888112e-01  -3.1082541e-01  -4.9759949e-02   6.9827798e-02  -8.6687692e-02  -1.4350881e-01   1.0221337e-01  -1.2331816e-01   2.0714936e-01  -6.0990375e-02  -6.3942295e-02   2.9527341e-01  -9.2147994e-04
   1.6554649e-03  -1.8667145e-03  -1.9689847e-02   1.4187902e-02   1.2503014e-02  -3.0105779e-02  -3.3992238e-02   1.5519811e-02   3.5041874e-02   5.6331189e-02   6.4966985e-03  -9.2309324e-02  -3.7626284e-02  -9.0538314e-02  -2.9510906e-02  -5.3304167e-02  -2.2968707e-02   1.4339905e-01   4.5043323e-02   6.0861373e-02   5.8858916e-02  -6.3289565e-02  -8.7784725e-02   6.4605991e-02  -1.0549391e-01  -1.0452149e-01   2.0518570e-02  -2.7900872e-02  -3.0633808e-01
   1.8281985e-03   2.0370367e-03  -8.0063548e-03  -5.8483786e-03   1.5720781e-02  -3.3528823e-02   3.6646003e-02   1.1699982e-02  -2.5740968e-03  -1.2900456e-02   1.4491615e-02  -4.4877025e-02  -8.5519392e-04  -6.6792606e-02   2.0350862e-03   3.1003934e-02  -4.3518575e-02  -4.3620742e-02  -5.3788281e-02  -7.5397253e-03  -1.1402572e-01   5.2952711e-02   7.7945177e-02   7.1162732e-02   8.3931513e-02  -3.6085489e-02   4.1267549e-02  -2.7836930e-02   3.1124121e-02
   1.7064206e-03  -5.3892586e-03  -5.5477953e-03  -1.3605534e-02  -5.7836013e-03   3.5397820e-02  -1.5283263e-02  -1.3507293e-02   5.4068254e-02   3.0977845e-02   1.0490097e-01  -1.2348978e-04   1.5158238e-01  -4.6287289e-02  -3.1757244e-02   6.0222862e-02  -1.0521491e-01  -7.2175789e-02   6.9117221e-02   1.8073078e-01   1.5372981e-01  -1.2380703e-01   1.5567185e-02  -1.6429373e-01   5.3365405e-02  -1.4497406e-01  -1.1977356e-01   8.6328542e-02  -5.7437131e-02
   3.1323609e-04   1.5446095e-02  -1.1435581e-02   5.2564787e-03  -3.7364863e-03  -6.2803174e-03  -3.7318365e-03  -3.9996324e-03   3.5406304e-03  -8.6791677e-03  -4.4136329e-02  -2.5445463e-02   6.5254207e-02  -2.7808606e-03  -9.8269136e-03  -2.7266182e-02  -2.7360490e-02  -1.3959962e-02   4.6239352e-02  -2.7276990e-02   2.9412876e-02  -8.9236599e-02  -9.3869061e-02   1.7140740e-02   2.2475639e-02  -2.6181170e-01   1.4208087e-03  -1.0130304e-01   1.0878864e-01
   1.8596265e-03  -1.0094552e-02  -8.4465840e-03  -1.9204328e-03   1.1244157e-02   1.7387420e-02   1.5194406e-02   9.2659088e-02  -2.1376487e-02  -1.0963140e-01  -8.2518640e-02  -1.1830182e-01  -2.1159763e-03  -9.7987339e-02   9.9370669e-02  -2.4863391e-01   5.7900972e-02  -1.0071680e-02   1.1536771e-01   1.4457426e-02  -2.1313413e-01  -9.9223030e-02   1.9586831e-02   4.8156318e-02   2.0541407e-01   4.4105645e-01  -2.0021130e-01   2.9977866e-01  -2.0297358e-01
  -2.0247780e-02  -2.2947172e-02  -3.8474781e-03  -1.1139342e-03  -3.5284223e-03   1.8419695e-02  -2.8963069e-02  -1.0667095e-02  -4.6489296e-02   9.2408597e-02  -1.0303322e-01  -4.5446117e-02   7.4206718e-02  -1.7537659e-01   6.0462343e-02   1.2478225e-01   1.0400930e-01  -1.0732967e-01   9.2596232e-02   1.7482514e-01   3.9868114e-02   4.7353797e-02   5.3078176e-02   1.0595485e-01  -2.3488890e-01   2.5090171e-01  -7.3635930e-04  -1.5157619e-01   1.8607783e-01
   3.7991880e-03   2.3546623e-03  -1.5311124e-02  -1.3966205e-03  -4.3245953e-03  -2.8947942e-02  -5.8652774e-02  -7.9414692e-02   1.5288530e-02   6.4685104e-02   3.6087999e-02   1.6070385e-01   3.7969652e-02   1.2519042e-01  -1.2623981e-01   2.8979304e-01  -1.3864693e-01   2.4965040e-02  -6.9503829e-02   1.0020823e-02   2.2143036e-01   7.9825109e-02   3.5867474e-02  -2.7702117e-01  -3.8539644e-01  -3.0531140e-01   1.8899490e-01  -8.2794089e-02   1.5174397e-02
   9.6269838e-03   1.9086586e-02  -4.1103347e-03   6.9017973e-03  -1.7080778e-02  -1.2736861e-02  -6.9021563e-04  -2.3556455e-02   2.8182324e-02  -8.2587940e-02   8.2183073e-02  -4.1774607e-02  -6.2499586e-02   1.6789344e-02  -2.7382404e-02  -1.8573826e-01  -1.3704982e-01  -1.3005002e-01  -1.8372635e-01   8.3363457e-02   1.5513389e-02  -4.5079423e-02  -5.5581280e-02   9.0159208e-02  -7.3593335e-03  -8.5485550e-02   2.4545740e-01  -8.6033790e-03  -1.3086481e-01
   2.0253815e-03  -3.4718649e-03  -4.3609894e-03  -5.8372789e-04   1.7368407e-02  -2.7195034e-02   1.2854468e-02  -1.9186693e-02  -7.3987347e-02  -8.7223153e-03  -4.0181656e-02  -4.0521169e-02  -2.1431256e-03  -4.5425543e-02  -2.4648407e-02  -4.6795702e-02  -5.6195034e-02  -4.0499039e-02  -9.6631792e-02  -8.0661780e-02  -1.9486657e-01  -1.1607345e-01   5.3921595e-02   1.0174274e-01  -7.2850333e-03  -1.0305351e-01  -3.9832138e-02   2.8595213e-02   1.3775577e-01
  -6.7372651e-03   1.2856861e-02   2.2775917e-02  -3.5254967e-02  -4.8683046e-03  -3.7855908e-02   3.0847314e-02   3.4930733e-02  -7.9821593e-02   6.7861918e-02  -2.9978366e-03  -8.6467888e-02  -1.0471694e-01  -1.7760759e-01  -8.4077430e-02   1.3197765e-01  -1.4962864e-01  -3.2098481e-01  -7.5825751e-02   5.1505092e-02  -1.2265213e-01  -1.0004713e-01   1.2391290e-01  -1.0779625e-01   2.2590704e-01  -5.3454555e-02  -3.6859166e-02   2.0360409e-01  -6.2136553e-03
   1.7217807e-03  -5.1591711e-03  -2.7528038e-02   1.3563792e-02   1.6030431e-02  -3.2458699e-02  -3.6498336e-02   1.6858530e-02   4.2720401e-02   5.2983955e-02   8.1752803e-03  -9.6713776e-02  -5.9962563e-02  -8.7105889e-02  -4.8514801e-02  -2.2714705e-02  -1.3495641e-02   1.2574887e-01   7.6115885e-02   8.0820280e-02   7.7435298e-02  -9.4432529e-02  -7.6731242e-02   5.0180023e-02  -9.3391757e-02  -1.1676606e-01   3.9640744e-02  -4.6764336e-02  -2.5512589e-01
   4.0438234e-03   3.5341202e-03  -9.6848311e-03  -5.5210146e-03   1.6114152e-02  -3.3312449e-02   3.6022454e-02   1.2506148e-02   5.2566613e-03  -2.9605822e-02   2.1477928e-02  -2.4028346e-02   3.3365132e-04  -2.8969742e-02   2.3480816e-02   2.1739487e-02  -3.4602355e-02  -4.4783148e-02  -8.0275927e-02   1.8622091e-03  -1.0475189e-01   9.6295165e-02   6.0104987e-02   2.8321300e-02   5.5826313e-02   2.2224079e-02   1.0491535e-01  -4.6271696e-02   3.2769020e-02
   3.1253452e-03  -4.2677613e-03  -6.3065408e-03  -1.2676594e-02  -3.0470097e-03   3.0893374e-02  -1.5685544e-02  -6.6423980e-03   3.1514475e-02   3.6492946e-02   9.1445131e-02  -5.2695104e-03   1.5488497e-01  -3.9538125e-02   9.6966663e-04   8.3286040e-02  -1.0455159e-01  -9.6089085e-02   6.9481931e-02   1.4363764e-01   1.2478541e-01  -1.4825114e-01  -6.6573028e-05  -1.4550826e-01   2.8378743e-02  -1.4390241e-01  -1.1865059e-01   1.0422941e-01  -5.0079045e-02
  -1.2794189e-03   1.9287590e-02  -1.5423715e-02   9.4185756e-03  -8.2079563e-03  -5.2909187e-03   7.4902734e-04  -5.7024166e-03  -1.0355415e-02   7.1501029e-04  -3.5069738e-02  -8.0272766e-03   9.7778701e-02  -2.4564478e-02   2.5826184e-02  -3.8023232e-03  -3.7666285e-02  -2.6043359e-02   1.1240818e-01  -3.8140415e-02   3.8127514e-02  -9.4259379e-02  -1.4068924e-01   7.2272742e-03   7.1561593e-04  -3.1829877e-01  -5.5598976e-02  -9.3097505e-02   7.9502947e-02
   2.0831733e-03  -6.7467318e-03  -4.1981944e-03   6.0548852e-04   1.1494347e-02   1.2049190e-02   1.2332363e-02   9.8773801e-02  -2.8303221e-02  -1.0284765e-01  -1.0110540e-01  -1.0632846e-01  -2.3458501e-02  -1.3527715e-01   1.6118454e-01  -1.9798171e-01   1.1855946e-01   6.4888060e-02   1.3213694e-01  -5.9980669e-03  -2.2059356e-01  -4.6637575e-03   9.4535600e-03   1.2043107e-02   1.8627134e-01   4.7273345e-01  -1.5573398e-01   3.2547526e-01  -2.3004064e-01
  -2.0280882e-02  -2.2121235e-02  -6.7252153e-03   1.1279681e-02  -8.3967695e-03   1.4517010e-02  -3.7039508e-02  -5.3999119e-03  -4.5047180e-02   8.6663151e-02  -1.0409914e-01  -5.7860923e-02   9.9238837e-02  -1.9533396e-01   7.8772548e-02   1.1809564e-01   1.2914593e-01  -7.7112780e-02   6.6260792e-02   1.9123311e-01   7.2298980e-02   1.7459362e-03  -8.9819937e-04   8.3926467e-02  -2.6479852e-01   3.1303845e-01  -4.0072970e-02  -2.4600103e-01   2.3158579e-01
   5.3128115e-03   2.6825765e-03  -1.8086012e-02  -2.2244588e-03  -1.6413319e-03  -3.3540186e-02  -5.7431471e-02  -6.9771665e-02   1.9747414e-02   6.2132286e-02   2.2536562e-02   1.7726630e-01   2.2693849e-02   1.5924130e-01  -1.5804719e-01   2.8142950e-01  -1.3323931e-01   1.3303677e-03  -8.6856134e-02   9.5020688e-02   2.3480471e-01   3.0359830e-02  -5.2948630e-03  -2.1634219e-01  -2.2964250e-01  -2.9666271e-01   2.0963024e-01  -1.1191155e-01  -7.1164415e-02
   7.8421307e-03   1.7264579e-02  -2.4639524e-03   1.1960466e-02  -1.1313287e-02  -1.0274661e-02  -3.0117279e-03  -1.4528576e-02   2.8190226e-02  -7.2664927e-02   8.8203278e-02  -1.1861483e-01  -6.4985374e-02   1.4086285e-02   2.4138832e-02  -1.4263895e-01  -1.1894215e-01  -8.9910784e-02  -1.6349160e-01   1.1417778e-01   9.8965090e-03  -7.3104702e-02  -2.3576624e-02   7.3598914e-02  -6.2396514e-02  -1.4734418e-01   1.9665854e-01  -5.8289986e-02   1.0844589e-02
   3.8725446e-03  -2.9268054e-03  -2.0909793e-03   2.3205414e-04   1.7220350e-02  -3.7909172e-02   1.9061856e-02   4.2819298e-03  -6.3005892e-02  -1.1740217e-02  -5.8059885e-02  -4.1414963e-02  -2.7103895e-02  -2.6170648e-02   3.7794076e-03  -7.6068789e-02  -5.6631841e-02  -3.8234493e-02  -1.1944518e-01  -1.0550828e-01  -1.9453943e-01  -7.0441884e-02   2.7408041e-02   7.4122338e-02   4.7164356e-03   5.8805059e-03   3.2349666e-02   5.2872774e-02   1.4893267e-01
  -5.1721441e-03   1.3618877e-02   1.6826140e-02  -2.6543231e-02  -8.0224926e-03  -4.2951076e-02   3.8899607e-02   3.3156590e-02  -8.4161104e-02   7.4896765e-02   1.6525655e-02  -8.8292799e-02  -1.0062912e-01  -1.9542752e-01  -6.3760105e-02   1.2626384e-01  -1.3604580e-01  -3.1892232e-01  -1.1318559e-01   3.2368569e-02  -1.6403606e-01  -4.3665717e-02   1.3168805e-01  -7.4723987e-02   2.3800192e-01  -4.2118511e-02  -3.9110796e-03   9.6334051e-02  -1.2986810e-02
   1.8913920e-03  -8.3132170e-03  -3.6402730e-02   1.3814355e-02   1.9705087e-02  -3.1093828e-02  -3.2828376e-02   2.1497485e-02   5.1283884e-02   4.8928886e-02   5.6833703e-03  -9.5886327e-02  -7.5832568e-02  -7.6996785e-02  -6.4228872e-02   1.0710397e-02  -4.6317137e-03   9.6413754e-02   1.1336834e-01   9.7960294e-02   9.1129693e-02  -1.2183269e-01  -6.1580736e-02   3.7279251e-02  -6.5331149e-02  -1.2843158e-01   5.5944737e-02  -5.5424449e-02  -1.7480924e-01
   6.2535149e-03   4.4603086e-03  -1.0691891e-02  -4.8386304e-03   1.4501820e-02  -3.2150820e-02   3.4835319e-02   1.3310434e-02   1.0689361e-02  -4.9699332e-02   2.5465860e-02   2.2344290e-03  -5.3709738e-03   1.2249729e-02   4.7162356e-02   6.6067839e-03  -1.9749425e-02  -4.1324275e-02  -1.1288929e-01  -8.3625748e-04  -8.5819574e-02   1.4255537e-01   3.5911102e-02  -5.2018983e-03   2.5291020e-02   8.0888587e-02   1.6126969e-01  -6.5659614e-02   2.5070440e-02
   3.9143131e-03  -3.7341643e-03  -6.3493213e-03  -9.7822248e-03  -1.8484217e-03   2.4915578e-02  -1.7839944e-02  -4.1464790e-03   4.9885698e-03   4.6064603e-02   7.7805860e-02  -9.4029906e-03   1.4909431e-01  -3.5368532e-02   3.0888806e-02   1.1395170e-01  -8.4999050e-02  -1.1037419e-01   5.8100434e-02   8.5811836e-02   8.2129977e-02  -1.6101591e-01  -1.2218904e-02  -1.0823429e-01  -3.8547788e-04  -1.2470708e-01  -1.2567367e-01   1.1458081e-01  -3.3908758e-02
  -3.3039330e-03   2.2702245e-02  -1.8959668e-02   1.2533650e-02  -1.4861427e-02   1.3628838e-03   6.9671830e-03  -8.9986350e-03  -1.8845310e-02   2.7711348e-03  -2.2125286e-02   7.7556865e-03   1.2448022e-01  -4.6731158e-02   6.6333544e-02   2.0625217e-02  -4.5907116e-02  -3.2489458e-02   1.7672146e-01  -5.0519323e-02   4.0515601e-02  -9.0835681e-02  -1.7710439e-01  -6.4284946e-03  -2.3555322e-02  -3.4859681e-01  -1.2100101e-01  -8.9030766e-02   4.7613237e-02
   2.5865434e-03  -1.9588311e-03   1.1141598e-03   2.4606955e-03   1.2223702e-02   7.3689016e-03   9.6326086e-03   1.0256922e-01  -3.3536464e-02  -9.0351384e-02  -1.0842862e-01  -9.1440964e-02  -3.7431831e-02  -1.6410506e-01   2.2406843e-01  -1.4323544e-01   1.7592463e-01   1.3921429e-01   1.4127780e-01  -2.5223885e-02  -2.1653834e-01   7.7052728e-02   4.7992885e-03  -3.3122493e-02   1.5228170e-01   4.6519719e-01  -1.0809278e-01   3.3433136e-01  -2.4047894e-01
  -1.9929573e-02  -2.1241237e-02  -1.0562257e-02   2.3618428e-02  -1.2038022e-02   8.1982536e-03  -4.2745705e-02  -4.6345262e-04  -4.0812181e-02   8.1023104e-02  -1.0059491e-01  -6.4048904e-02   1.2035632e-01  -2.0231377e-01   8.6608075e-02   1.1351584e-01   1.4233606e-01  -3.5424212e-02   3.8787192e-02   1.9816680e-01   9.1013676e-02  -3.4559600e-02  -5.3704950e-02   6.7915974e-02  -2.7118818e-01   3.6459389e-01  -8.7501922e-02  -3.1006971e-01   2.6226508e-01
   5.7939799e-03   2.7809020e-03  -1.9864006e-02  -2.3972724e-03   3.0108639e-03  -3.4426469e-02  -5.0013081e-02  -5.3552537e-02   2.4239213e-02   5.9899853e-02   3.9364239e-03   1.8471230e-01   2.5375247e-03   1.8581167e-01  -1.8671935e-01   2.5899945e-01  -1.2682926e-01  -1.4772643e-02  -9.7446502e-02   1.6450169e-01   2.4714512e-01  -3.4916691e-02  -4.2490412e-02  -1.4223919e-01  -4.6156339e-02  -2.6857250e-01   2.1555041e-01  -1.4480017e-01  -1.4390454e-01
   5.9585736e-03   1.5832773e-02   6.8333741e-04   1.5685637e-02  -6.6926601e-03  -6.8478540e-03  -4.1632497e-03  -2.4040513e-03   2.7974957e-02  -6.4941102e-02   9.1667950e-02  -1.7939901e-01  -6.2457936e-02   1.5851907e-03   8.2313428e-02  -9.3619843e-02  -8.6806358e-02  -3.9183952e-02  -1.3872027e-01   1.3196461e-01   8.3326295e-03  -7.7308323e-02   2.2721802e-02   3.9843701e-02  -1.1601405e-01  -1.9242302e-01   1.3788161e-01  -9.6642612e-02   1.4497153e-01
   4.8114542e-03  -1.8405949e-03   7.5196158e-05   1.6533850e-03   1.5940096e-02  -4.8976873e-02   2.4617914e-02   2.9172875e-02  -4.9200919e-02  -1.3324480e-02  -7.4156720e-02  -4.2526126e-02  -4.7893179e-02  -7.0275134e-03   3.5856878e-02  -9.8200955e-02  -5.3222159e-02  -3.6682056e-02  -1.3012644e-01  -1.1716406e-01  -1.8084598e-01  -1.5259132e-02  -6.7754054e-03   3.7437304e-02   2.5351063e-02   1.2103509e-01   9.5075903e-02   8.4455560e-02   1.5652788e-01
  -3.7837874e-03   1.4355151e-02   1.0644334e-02  -1.6199627e-02  -1.1003141e-02  -4.6559811e-02   4.2784236e-02   2.5856505e-02  -9.0210724e-02   8.0792650e-02   3.6277860e-02  -8.6474655e-02  -9.1006046e-02  -2.1215452e-01  -3.7193689e-02   1.1528174e-01  -1.1799569e-01  -3.0691881e-01  -1.6196077e-01   1.3616919e-02  -2.0998194e-01   2.2713902e-02   1.2368701e-01  -2.7298777e-02   2.4401085e-01  -2.6949748e-02   3.7577716e-02  -2.1743060e-02  -1.8479473e-02
   2.0743059e-03  -1.0956111e-02  -4.5133440e-02   1.4623901e-02   2.2979664e-02  -2.6536875e-02  -2.4362639e-02   2.8436460e-02   5.9142329e-02   4.4841911e-02   7.0945624e-04  -8.9573403e-02  -8.3892718e-02  -5.9733964e-02  -7.4842205e-02   4.4025009e-02   4.2253421e-03   5.9215440e-02   1.5427841e-01   1.0983125e-01   9.7816475e-02  -1.4288846e-01  -4.2476809e-02   2.6851140e-02  -2.5755968e-02  -1.3646357e-01   6.9008618e-02  -5.2558574e-02  -7.8570189e-02
   8.2373394e-03   4.3548219e-03  -1.0799687e-02  -3.9839727e-03   1.0957252e-02  -3.0044918e-02   3.3219257e-02   1.3242791e-02   1.4470394e-02  -7.2389221e-02   2.6221412e-02   3.0696393e-02  -1.7636155e-02   5.2263788e-02   6.8807491e-02  -1.5359906e-02  -1.0986669e-04  -3.0680574e-02  -1.4870134e-01  -1.8301794e-02  -5.7851441e-02   1.8418835e-01   8.3983039e-03  -2.3793573e-02  -5.5231777e-03   1.3339918e-01   1.9994720e-01  -8.7071141e-02   6.6262236e-03
   3.9883969e-03  -3.9255266e-03  -5.9075756e-03  -5.0675782e-03  -1.9776018e-03   1.7707186e-02  -2.1792471e-02  -7.7779484e-03  -2.2803652e-02   5.9077266e-02   6.5173770e-02  -1.1980826e-02   1.3422605e-01  -3.8048577e-02   5.2872993e-02   1.4716210e-01  -4.9527618e-02  -1.1358857e-01   3.4039188e-02   1.3987760e-02   2.8021018e-02  -1.6399772e-01  -1.8496409e-02  -5.5950891e-02  -2.9035185e-02  -9.2714825e-02  -1.3576096e-01   1.1450756e-01  -5.5719258e-03
  -5.5377487e-03   2.5036777e-02  -2.1650765e-02   1.4338930e-02  -2.2670228e-02   1.2846768e-02   1.4192756e-02  -1.2805533e-02  -2.2306106e-02  -3.0103780e-03  -6.9573819e-03   2.1207068e-02   1.4222810e-01  -6.6286855e-02   1.0581448e-01   4.1716570e-02  -5.3336155e-02  -3.2705359e-02   2.3281194e-01  -6.4235085e-02   3.6548560e-02  -7.8871389e-02  -1.9928591e-01  -2.2238085e-02  -4.8566943e-02  -3.5067410e-01  -1.8845863e-01  -8.9152596e-02   1.1260431e-02
   3.3725165e-03   3.7027099e-03   7.3175249e-03   3.7030891e-03   1.2901294e-02   3.2291334e-03   6.6068020e-03   1.0273583e-01  -3.6574777e-02  -7.3203655e-02  -1.0394259e-01  -7.7609374e-02  -4.2539519e-02  -1.8380313e-01   2.8375548e-01  -8.6703722e-02   2.2553076e-01   2.0959707e-01   1.4230419e-01  -4.3402755e-02  -2.0225804e-01   1.4342244e-01   6.7713513e-03  -8.3611215e-02   9.8794619e-02   4.1475959e-01  -6.1080920e-02   3.3031719e-01  -2.3129134e-01
  -1.8869537e-02  -1.9808470e-02  -1.5514634e-02   3.4791967e-02  -1.4229573e-02  -2.3588480e-04  -4.5583810e-02   3.2081720e-03  -3.4099358e-02   7.5759544e-02  -8.9628543e-02  -6.0450687e-02   1.3479671e-01  -1.8930047e-01   8.2539340e-02   1.0866293e-01   1.4243661e-01   1.3027655e-02   1.0785304e-02   1.9381661e-01   9.3197627e-02  -5.9729627e-02  -1.0335100e-01   6.0172071e-02  -2.5236546e-01   3.9693068e-01  -1.3223365e-01  -3.3762898e-01   2.7365701e-01
   5.3389858e-03   2.4683279e-03  -2.0725161e-02  -2.3474635e-03   9.1299906e-03  -3.1376489e-02  -3.6903180e-02  -3.3111573e-02   2.9200836e-02   5.7910568e-02  -1.7778867e-02   1.8356507e-01  -1.9288089e-02   2.0491699e-01  -2.1285254e-01   2.2120823e-01  -1.2203574e-01  -2.8735584e-02  -1.0256495e-01   2.1627992e-01   2.5770803e-01  -1.1162904e-01  -7.4612271e-02  -5.3459808e-02   1.5111004e-01  -2.2028336e-01   2.0658458e-01  -1.7988297e-01  -2.0117193e-01
   4.0378102e-03   1.4621513e-02   5.1182137e-03   1.7591897e-02  -3.5405406e-03  -2.7863257e-03  -3.6945740e-03   1.1993388e-02   2.7134638e-02  -5.9645326e-02   9.0832081e-02  -2.1794372e-01  -5.5727449e-02  -2.1317763e-02   1.3983333e-01  -4.4453434e-02  -4.6310085e-02   1.4519859e-02  -1.0979499e-01   1.3563885e-01   9.6707802e-03  -5.6849721e-02   7.8047277e-02  -4.5421228e-03  -1.6797451e-01  -2.1165251e-01   7.0625759e-02  -1.1933364e-01   2.5961743e-01
   4.6564081e-03  -3.6359712e-04   1.8929812e-03   3.8107098e-03   1.3552354e-02  -5.8629164e-02   2.8223625e-02   5.1378506e-02  -3.4723430e-02  -1.2594342e-02  -8.6137004e-02  -4.3866181e-02  -6.3852580e-02   8.7298669e-03   6.5486945e-02  -1.1108036e-01  -4.1979181e-02  -3.3989348e-02  -1.2760308e-01  -1.1589410e-01  -1.5738122e-01   4.5258748e-02  -4.4809947e-02  -5.0255082e-04   5.2434111e-02   2.2939983e-01   1.4187610e-01   1.1334765e-01   1.5831630e-01
  -2.6202526e-03   1.5257654e-02   4.7188570e-03  -4.8525783e-03  -1.3555505e-02  -4.8199743e-02   4.2099674e-02   1.3412449e-02  -9.7590796e-02   8.5678317e-02   5.5481509e-02  -8.0777541e-02  -7.5670859e-02  -2.2655531e-01  -5.4685578e-03   9.9764310e-02  -9.6173892e-02  -2.8706915e-01  -2.2035755e-01  -2.8196240e-03  -2.5948078e-01   9.5897973e-02   9.9596749e-02   2.9664761e-02   2.4497391e-01  -8.6459498e-03   8.9060397e-02  -1.4521458e-01  -2.0437131e-02
   2.1795510e-03  -1.2775133e-02  -5.2296315e-02   1.5599716e-02   2.5275241e-02  -1.9460284e-02  -1.2842289e-02   3.6288142e-02   6.4512451e-02   4.1827866e-02  -5.0961343e-03  -7.7721472e-02  -8.3573937e-02  -3.6631862e-02  -7.8563052e-02   7.2869339e-02   1.4672886e-02   1.9220434e-02   1.9427681e-01   1.1365862e-01   9.5781260e-02  -1.5520863e-01  -1.9432761e-02   2.0142221e-02   1.8078259e-02  -1.3712378e-01   7.9057504e-02  -3.8360778e-02   1.7801306e-02
   9.7660522e-03   2.9364973e-03  -9.7668624e-03  -3.2523924e-03   5.8959330e-03  -2.6979530e-02   3.1431997e-02   1.1467076e-02   1.7853382e-02  -9.6102862e-02   2.3842962e-02   5.7352329e-02  -3.4604497e-02   8.6505391e-02   8.4354353e-02  -4.2975275e-02   2.2624268e-02  -1.1606676e-02  -1.8198778e-01  -5.0022628e-02  -2.2434502e-02   2.1251501e-01  -1.8824306e-02  -2.4224266e-02  -3.5050113e-02   1.7329572e-01   2.1173989e-01  -1.0998106e-01  -2.0262717e-02
   3.4533189e-03  -4.8629076e-03  -5.2100043e-03   9.4745207e-04  -3.0506555e-03   1.0040946e-02  -2.7047312e-02  -1.7655173e-02  -4.8399699e-02   7.3294716e-02   5.4095256e-02  -1.2461679e-02   1.1097928e-01  -4.9914657e-02   6.2914997e-02   1.7596084e-01  -3.9487406e-03  -1.0551925e-01  -2.1473906e-03  -6.2389762e-02  -3.4350292e-02  -1.5932318e-01  -1.6482046e-02   4.0777410e-03  -5.4365817e-02  -5.3741088e-02  -1.4251831e-01   1.0254704e-01   3.6030658e-02
  -7.6881984e-03   2.5707306e-02  -2.3156389e-02   1.4649310e-02  -3.0266660e-02   2.7408396e-02   2.1402890e-02  -1.6098045e-02  -2.1300285e-02  -1.6018422e-02   8.3558300e-03   3.1624395e-02   1.4804081e-01  -8.0276930e-02   1.3731589e-01   5.5447832e-02  -6.0800362e-02  -2.6445101e-02   2.7315354e-01  -7.7900111e-02   2.7637952e-02  -5.9368769e-02  -2.0347120e-01  -3.8268908e-02  -7.1857505e-02  -3.2390493e-01  -2.4800336e-01  -9.0528309e-02  -2.8548771e-02
   4.4172682e-03   9.5532732e-03   1.4137322e-02   4.4611172e-03   1.2912483e-02  -6.0332867e-04   2.6667559e-03   9.7574736e-02  -3.7015976e-02  -5.2828903e-02  -8.7811651e-02  -6.8298512e-02  -3.7685448e-02  -1.9421280e-01   3.3582204e-01  -3.0279080e-02   2.6328751e-01   2.7203179e-01   1.3490942e-01  -6.1174919e-02  -1.8016450e-01   1.9409989e-01   1.5390745e-02  -1.3554050e-01   2.1538413e-02   3.2084581e-01  -1.7840009e-02   3.1740286e-01  -2.0049432e-01
  -1.6752986e-02  -1.7321667e-02  -2.1574137e-02   4.3889118e-02  -1.4927715e-02  -1.0157786e-02  -4.5331258e-02   4.7365572e-03  -2.5528811e-02   7.0501052e-02  -6.8534952e-02  -4.4051684e-02   1.3983642e-01  -1.5029778e-01   6.5923793e-02   1.0056323e-01   1.2898935e-01   6.2913268e-02  -1.6630815e-02   1.7691279e-01   7.7819621e-02  -7.2833729e-02  -1.4786906e-01   6.0604318e-02  -2.0862820e-01   4.0080853e-01  -1.6219661e-01  -3.2600753e-01   2.6215832e-01
   4.1329275e-03   1.5623482e-03  -2.0787786e-02  -2.4932862e-03   1.5985062e-02  -2.4566051e-02  -1.9262148e-02  -1.1562239e-02   3.4921161e-02   5.5831639e-02  -4.0404603e-02   1.7485721e-01  -3.9655481e-02   2.1692828e-01  -2.3758920e-01   1.6777216e-01  -1.2142856e-01  -4.6515018e-02  -1.0395364e-01   2.4833947e-01   2.6458159e-01  -1.9386620e-01  -1.0153323e-01   5.0423609e-02   3.4558197e-01  -1.5301951e-01   1.8420934e-01  -2.1524142e-01  -2.4233500e-01
   2.1201342e-03   1.3440463e-02   1.0465741e-02   1.7271320e-02  -1.9065101e-03   1.6639899e-03  -1.2725627e-03   2.7454623e-02   2.5428184e-02  -5.6319704e-02   8.4100583e-02  -2.2968475e-01  -4.5577291e-02  -5.4130924e-02   1.8940237e-01  -9.6701643e-04  -4.3338683e-03   6.2334506e-02  -7.6421522e-02   1.2517185e-01   1.1928143e-02  -1.3735807e-02   1.3556869e-01  -5.1141816e-02  -2.1842040e-01  -1.9793187e-01  -3.4280644e-03  -1.2416652e-01   3.4497132e-01
   3.4847114e-03   1.2308168e-03   3.1382991e-03   6.5764439e-03   1.0260244e-02  -6.4883732e-02   2.8510630e-02   6.6560402e-02  -2.1389940e-02  -9.0882956e-03  -9.1795759e-02  -4.4648290e-02  -7.5019313e-02   1.7626949e-02   8.5812755e-02  -1.1417159e-01  -2.0242695e-02  -2.8063935e-02  -1.1282003e-01  -1.0327806e-01  -1.2878818e-01   1.0415018e-01  -8.0855723e-02  -3.1897408e-02   8.2401070e-02   3.1584729e-01   1.7023972e-01   1.2787515e-01   1.5250142e-01
  -1.7405710e-03   1.6503200e-02  -4.4252023e-04   6.7828725e-03  -1.5375331e-02  -4.7636981e-02   3.6872451e-02  -3.0524488e-03  -1.0565976e-01   8.9591563e-02   7.3283731e-02  -7.1511047e-02  -5.4389779e-02  -2.3717999e-01   3.0020970e-02   8.0403699e-02  -7.1989001e-02  -2.6103901e-01  -2.8459199e-01  -1.4593325e-02  -3.1108828e-01   1.7260812e-01   6.0718253e-02   9.0306441e-02   2.4259995e-01   1.1524199e-02   1.5034890e-01  -2.6793769e-01  -1.7440639e-02
   2.1386989e-03  -1.3539323e-02  -5.6409821e-02   1.6323420e-02   2.6041528e-02  -1.0607549e-02  -1.4278078e-04   4.3488632e-02   6.5701774e-02   4.1264183e-02  -1.0356853e-02  -6.0500284e-02  -7.5256916e-02  -1.0782020e-02  -7.3960095e-02   9.1810057e-02   2.8830471e-02  -1.7835352e-02   2.2688306e-01   1.0665601e-01   8.3956633e-02  -1.5673606e-01   7.3021744e-03   1.8802944e-02   5.7050528e-02  -1.2640837e-01   8.6819386e-02  -1.4370919e-02   9.7328730e-02
   1.0600461e-02   1.9476295e-04  -7.3761889e-03  -3.0057389e-03   8.8472437e-05  -2.3022299e-02   2.9820853e-02   7.6001256e-03   2.2260178e-02  -1.1824448e-01   1.8636037e-02   7.7694142e-02  -5.2681031e-02   1.1106824e-01   9.0481856e-02  -7.2929637e-02   4.6240882e-02   1.5588196e-02  -2.0440366e-01  -9.1627047e-02   1.7618380e-02   2.1926479e-01  -4.1847950e-02  -5.8845064e-03  -6.1524129e-02   1.9484086e-01   1.8993356e-01  -1.3139310e-01  -4.9477845e-02
   2.5459572e-03  -6.4231616e-03  -4.4454635e-03   7.4071005e-03  -4.6115407e-03   3.1285528e-03  -3.2544114e-02  -3.2017954e-02  -6.7965055e-02   8.4954211e-02   4.4532023e-02  -1.0691134e-02   8.0747650e-02  -7.0803620e-02   5.8638238e-02   1.9238087e-01   4.3450681e-02  -8.7137803e-02  -4.7982886e-02  -1.3138798e-01  -1.0054832e-01  -1.4831387e-01  -4.2743016e-03   6.1607430e-02  -7.3647160e-02  -1.3319885e-02  -1.4003091e-01   7.9522785e-02   8.8634094e-02
  -9.4226405e-03   2.4298330e-02  -2.3227572e-02   1.3403507e-02  -3.6112309e-02   4.2602832e-02   2.7397806e-02  -1.8076145e-02  -1.6403371e-02  -3.4506084e-02   2.1530925e-02   3.8362540e-02   1.3948046e-01  -8.6182335e-02   1.5386645e-01   5.8726381e-02  -6.8286692e-02  -1.3836827e-02   2.8989173e-01  -8.9051360e-02   1.6355139e-02  -3.4387940e-02  -1.8614657e-01  -5.2479372e-02  -9.0591701e-02  -2.6911170e-01  -2.8668122e-01  -8.7697603e-02  -6.7254007e-02
   5.6547032e-03   1.4852446e-02   2.1207762e-02   4.9062512e-03   1.1649549e-02  -4.4011910e-03  -2.7617708e-03   8.5312337e-02  -3.4601943e-02  -3.0854427e-02  -6.0915915e-02  -6.6156195e-02  -2.2439043e-02  -1.9569799e-01   3.7594004e-01   2.4434477e-02   2.8571007e-01   3.2214332e-01   1.1902186e-01  -7.9653609e-02  -1.5338014e-01   2.3029440e-01   2.9594202e-02  -1.8517063e-01  -8.2234255e-02   1.8638841e-01   1.9061350e-02   2.9894773e-01  -1.4742884e-01
