  -2.9578905e-02  -1.1050871e-02
   4.5231881e-02   7.9826123e-04
  -2.4687955e-03   4.8496107e-03
   8.3018864e-03  -8.4927293e-02
  -1.3972704e-02   6.8907034e-02
   9.1428943e-03  -5.4877558e-02
  -3.5948925e-03   2.8160653e-03
  -4.0069376e-02  -6.9346916e-02
  -1.9592689e-02  -8.5560695e-02
   3.4850080e-02  -4.0034697e-02
  -1.4946964e-02  -8.6852780e-03
   3.2327228e-02   3.1445312e-03
  -3.4150299e-04  -2.0790176e-03
   6.2947708e-04  -2.0948050e-02
  -3.9659638e-03   1.1891024e-02
  -1.5921769e-03   6.4901169e-03
  -4.1028537e-03   3.0240238e-03
  -3.0669091e-02  -4.8982620e-02
  -1.3449868e-02  -6.1161461e-02
   2.2294714e-02  -3.0547619e-02
  -3.9479323e-03  -8.7719073e-03
   2.1805701e-02   3.1061872e-03
   1.2293562e-03  -4.4312248e-03
  -5.4956801e-03   1.3803460e-02
  -8.7838470e-05  -1.7379548e-02
  -4.8859297e-03   2.9625600e-02
  -3.2613128e-03   2.8081110e-03
  -2.2239232e-02  -3.1563368e-02
  -7.9230608e-03  -4.0597489e-02
   1.3099853e-02  -2.2862812e-02
   3.3946159e-03  -9.2832204e-03
   1.3664298e-02   2.1004868e-03
   2.3162972e-03  -3.9419228e-03
  -9.5651692e-03   2.6865824e-02
   1.8233619e-04  -2.6799313e-02
  -3.9786985e-03   2.8740678e-02
  -1.9009709e-03   2.2042246e-03
  -1.5156536e-02  -1.7184878e-02
  -3.2559638e-03  -2.3731411e-02
   6.8425466e-03  -1.6745743e-02
   7.4514272e-03  -9.1308649e-03
   7.7522581e-03   1.0660204e-03
   3.0183277e-03  -2.0190351e-03
  -1.1499813e-02   2.5541371e-02
  -1.1476744e-03  -2.3924759e-02
  -1.4128371e-03   1.6053622e-02
  -6.9468986e-04   1.2836532e-03
  -9.6569051e-03  -5.8221602e-03
   3.9944099e-04  -1.0353352e-02
   3.0345238e-03  -1.1946672e-02
   8.8523091e-03  -8.0012581e-03
   3.8173015e-03   5.1074471e-04
   3.4410890e-03   2.7687691e-04
  -1.1587801e-02   1.6279978e-02
  -2.7056197e-03  -1.5196117e-02
   1.0941764e-03   8.3295756e-04
  -6.2749408e-05   1.4257465e-04
  -5.8011020e-03   2.6621344e-03
   3.0051342e-03  -1.9383127e-04
   1.1719999e-03  -8.2218825e-03
   8.3436097e-03  -6.1185912e-03
   1.5525079e-03   5.9122367e-04
   3.6797800e-03   2.2308004e-03
  -1.0364208e-02   4.2363074e-03
  -3.7482150e-03  -5.4388783e-03
   2.6296906e-03  -1.0994856e-02
  -1.3316278e-04  -1.1041977e-03
  -3.4710954e-03   8.5031663e-03
   4.6391846e-03   7.0675901e-03
   7.7638076e-04  -5.3535994e-03
   6.6623000e-03  -3.9838599e-03
   6.3509333e-04   1.2125969e-03
   3.8075211e-03   3.4473449e-03
  -8.4646824e-03  -6.9531025e-03
  -4.0527359e-03   2.3162950e-03
   2.9501457e-03  -1.6695271e-02
  -7.6903624e-04  -2.3345181e-03
  -2.4005288e-03   1.2011600e-02
   5.4756362e-03   1.1790654e-02
   1.4201719e-03  -3.1649860e-03
   4.4436027e-03  -2.1371732e-03
   7.5260807e-04   2.1350167e-03
   3.8706344e-03   3.8034646e-03
  -6.4880473e-03  -1.5167482e-02
  -3.7494574e-03   6.7172816e-03
   2.2745852e-03  -1.6142481e-02
  -1.6567146e-03  -3.4360255e-03
  -2.2336164e-03   1.3545765e-02
   5.7454218e-03   1.4357691e-02
   2.7371350e-03  -1.5272438e-03
   2.1697223e-03  -9.8017019e-04
   1.6165862e-03   3.0716099e-03
   3.8912168e-03   3.3856767e-03
  -4.8943005e-03  -1.9608448e-02
  -3.1394766e-03   7.7487115e-03
   1.0562434e-03  -1.0970623e-02
  -2.4303730e-03  -4.3237436e-03
  -2.5985267e-03   1.3482876e-02
   5.6870467e-03   1.5153988e-02
   4.4201900e-03  -3.5757503e-04
   1.5840630e-04  -6.7881726e-04
   2.9668278e-03   3.7653800e-03
   3.8751269e-03   2.4189950e-03
  -3.9507908e-03  -2.0480245e-02
  -2.5369374e-03   6.2627155e-03
  -2.2074111e-04  -3.6445937e-03
  -2.7972447e-03  -4.9507738e-03
  -3.1767852e-03   1.2194313e-02
   5.4992611e-03   1.4549641e-02
   6.2132541e-03   3.9094294e-04
  -1.4167144e-03  -1.1482870e-03
   4.5707749e-03   4.0376791e-03
   3.8216846e-03   1.1955490e-03
  -3.7276787e-03  -1.8621923e-02
  -2.1636729e-03   3.4859025e-03
  -1.1850343e-03   3.3777479e-03
  -2.6275543e-03  -5.3074511e-03
  -3.7513336e-03   1.0028251e-02
   5.3078065e-03   1.2886874e-02
   7.9035119e-03   7.4450323e-04
  -2.4879030e-03  -2.1059037e-03
   6.2224024e-03   3.8078790e-03
   3.7328919e-03   1.1495095e-05
  -4.1342893e-03  -1.5161250e-02
  -2.1066836e-03   5.9507016e-04
  -1.6492369e-03   8.2583817e-03
  -1.9848338e-03  -5.4101580e-03
  -4.2224915e-03   7.3000231e-03
   5.1543194e-03   1.0474135e-02
   9.3186312e-03   7.2470144e-04
  -3.0526841e-03  -3.1668123e-03
   7.7438021e-03   3.0900044e-03
   3.6211866e-03  -8.8114353e-04
  -4.9796123e-03  -1.1235037e-02
  -2.3301251e-03  -1.5721594e-03
  -1.6108987e-03   1.0095768e-02
  -1.0911932e-03  -5.2858838e-03
  -4.5907157e-03   4.2882051e-03
   5.0089653e-03   7.5853141e-03
   1.0330032e-02   3.6194424e-04
  -3.1420815e-03  -3.9516804e-03
   8.9902390e-03   1.9749418e-03
   3.5144538e-03  -1.3051664e-03
  -6.0372846e-03  -7.7934414e-03
  -2.7214732e-03  -2.6439733e-03
  -1.2014397e-03   8.9450589e-03
  -2.4211334e-04  -4.9596726e-03
  -4.9146437e-03   1.2336280e-03
   4.8013948e-03   4.4610565e-03
   1.0859890e-02  -2.9627376e-04
  -2.8031126e-03  -4.1784587e-03
   9.8571294e-03   6.0628194e-04
   3.4571443e-03  -1.1722916e-03
  -7.0982368e-03  -5.4870163e-03
  -3.1473481e-03  -2.6906889e-03
  -6.1212913e-04   5.6048402e-03
   2.9939343e-04  -4.4495294e-03
  -5.2597234e-03  -1.6607828e-03
   4.4592331e-03   1.3097706e-03
   1.0887304e-02  -1.1830023e-03
  -2.0946019e-03  -3.7192238e-03
   1.0286191e-02  -8.4465774e-04
   3.5062100e-03  -4.8314901e-04
  -8.0014719e-03  -4.6259673e-03
  -3.4981639e-03  -2.0935287e-03
  -2.3947482e-05   1.2735664e-03
   3.9370286e-04  -3.7691189e-03
  -5.6546268e-03  -4.2301476e-03
   3.9413792e-03  -1.6922251e-03
   1.0448691e-02  -2.2147089e-03
  -1.0907911e-03  -2.6150442e-03
   1.0268012e-02  -2.2016832e-03
   3.7212317e-03   6.8425333e-04
  -8.6435717e-03  -5.1965894e-03
  -3.7107753e-03  -1.3616951e-03
   4.3952441e-04  -2.8159628e-03
   7.0970155e-05  -2.9354228e-03
  -6.0690078e-03  -6.3475654e-03
   3.2556833e-03  -4.4006615e-03
   9.6291804e-03  -3.2977543e-03
   1.1396884e-04  -1.0525542e-03
   9.8393277e-03  -3.3031605e-03
   4.1503791e-03   2.1948568e-03
  -8.9753065e-03  -6.9164710e-03
  -3.7689199e-03  -9.5041881e-04
   7.2864015e-04  -5.6968281e-03
  -4.8118415e-04  -1.9774668e-03
  -6.4183244e-03  -7.9232878e-03
   2.4562317e-03  -6.7025703e-03
   8.5446967e-03  -4.3364268e-03
   1.4047271e-03   6.8715575e-04
   9.0750903e-03  -4.0179272e-03
   4.8156968e-03   3.8816843e-03
  -8.9945429e-03  -9.3103523e-03
  -3.6883508e-03  -1.1211873e-03
   8.5607379e-04  -6.8497209e-03
  -9.8331318e-04  -9.4204834e-04
  -6.5921878e-03  -8.9024641e-03
   1.6224607e-03  -8.5143112e-03
   7.3177620e-03  -5.2406033e-03
   2.6519215e-03   2.2932976e-03
   8.0769324e-03  -4.2584677e-03
   5.7011379e-03   5.5706099e-03
  -8.7398276e-03  -1.1794462e-02
  -3.4962539e-03  -1.8708666e-03
   8.6486384e-04  -6.2492176e-03
  -1.1602494e-03   1.0715636e-04
  -6.4949774e-03  -9.2608820e-03
   8.2840747e-04  -9.7780282e-03
   6.0528116e-03  -5.9317041e-03
   3.7231238e-03   3.4894854e-03
   6.9601989e-03  -3.9921115e-03
   6.7449076e-03   7.0998156e-03
  -8.2846046e-03  -1.3765592e-02
  -3.2158167e-03  -2.9404217e-03
   7.9266124e-04  -4.2871806e-03
  -8.3505952e-04   1.0986857e-03
  -6.0836798e-03  -8.9987956e-03
   1.1368622e-04  -1.0456746e-02
   4.8177844e-03  -6.3465392e-03
   4.4976449e-03   4.0852481e-03
   5.8413221e-03  -3.2497298e-03
   7.8366955e-03   8.3314269e-03
  -7.7314403e-03  -1.4695860e-02
  -2.8643495e-03  -3.8959518e-03
   6.5003428e-04  -1.6112843e-03
   1.0176456e-05   1.9686708e-03
  -5.3893721e-03  -8.1340670e-03
  -5.3295584e-04  -1.0529408e-02
   3.6372828e-03  -6.4395979e-03
   4.8797288e-03   4.0068617e-03
   4.8267367e-03  -2.1295281e-03
   8.8221900e-03   9.1564053e-03
  -7.2044300e-03  -1.4230027e-02
  -2.4630461e-03  -4.2569204e-03
   4.1981627e-04   1.0665789e-03
   1.2257034e-03   2.6775000e-03
  -4.5147662e-03  -6.6967036e-03
  -1.1711073e-03  -9.9881284e-03
   2.4990736e-03  -6.1848719e-03
   4.8075216e-03   3.3043831e-03
   4.0038955e-03  -7.9271725e-04
   9.5169987e-03   9.4949929e-03
  -6.8350212e-03  -1.2273132e-02
  -2.0484373e-03  -3.6376801e-03
   7.4205425e-05   3.1399586e-03
   2.5388095e-03   3.2222673e-03
  -3.6085158e-03  -4.7267519e-03
  -1.8871706e-03  -8.8397435e-03
   1.3718488e-03  -5.5780376e-03
   4.2576022e-03   2.1360263e-03
   3.4339901e-03   5.5093933e-04
   9.7300091e-03   9.2946293e-03
  -6.7372720e-03  -9.0507279e-03
  -1.6768969e-03  -1.8712086e-03
  -3.9895332e-04   4.2225535e-03
   3.6358245e-03   3.6413448e-03
  -2.8247326e-03  -2.2765280e-03
  -2.7600005e-03  -7.1124788e-03
   2.2912560e-04  -4.6391433e-03
   3.2463557e-03   7.3361294e-04
   3.1451849e-03   1.6671666e-03
   9.2946077e-03   8.5275942e-03
  -6.9742659e-03  -5.1244203e-03
  -1.4185038e-03   9.0874103e-04
  -9.6985439e-04   4.1980977e-03
   4.2536701e-03   4.0097900e-03
  -2.2808223e-03   5.8295436e-04
  -3.8240462e-03  -4.8670555e-03
  -9.2755596e-04  -3.4154790e-03
   1.8306894e-03  -6.4528253e-04
   3.1252886e-03   2.3276752e-03
   8.1049546e-03   7.1919711e-03
  -7.5247598e-03  -1.3488636e-03
  -1.3414629e-03   4.2447146e-03
  -1.5493084e-03   3.2103800e-03
   4.2510952e-03   4.4257995e-03
  -2.0269112e-03   3.7521912e-03
  -5.0411772e-03  -2.2106212e-03
  -2.0526481e-03  -1.9842178e-03
   1.1056554e-04  -1.7712611e-03
   3.3137342e-03   2.3421727e-03
   6.1536899e-03   5.3202272e-03
  -8.2635387e-03   1.2413624e-03
  -1.4916086e-03   7.4050006e-03
  -1.9885095e-03   1.6034302e-03
   3.6376655e-03   4.9882401e-03
  -2.0358162e-03   7.0909171e-03
  -6.2893947e-03   6.8790595e-04
  -3.0520877e-03  -4.5462355e-04
  -1.7654673e-03  -2.4936259e-03
   3.5941761e-03   1.5856547e-03
   3.5667625e-03   2.9980718e-03
  -8.9678669e-03   1.6223993e-03
  -1.8725666e-03   9.5109203e-03
  -2.1025067e-03  -1.7519275e-04
   2.5536801e-03   5.7648315e-03
  -2.2153283e-03   1.0404160e-02
  -7.3709559e-03   3.5816684e-03
  -3.7912062e-03   1.0301869e-03
  -3.5923850e-03  -2.7759833e-03
   3.7904547e-03   1.3555506e-05
   6.3052962e-04   3.9284442e-04
  -9.3564645e-03  -9.5626091e-04
  -2.4317202e-03   9.7327291e-03
  -1.7195311e-03  -1.6895174e-03
   1.2112313e-03   6.7518118e-03
  -2.4370158e-03   1.3427838e-02
  -8.0361357e-03   6.1293638e-03
  -4.1124252e-03   2.2919827e-03
  -5.1010647e-03  -2.7058191e-03
   3.6693458e-03  -2.3427826e-03
  -2.1947029e-03  -2.2126473e-03
  -9.1601101e-03  -6.6645563e-03
  -3.0577764e-03   7.5268342e-03
  -7.4814662e-04  -2.6236388e-03
  -1.8019393e-04   7.8280627e-03
  -2.5703155e-03   1.5815739e-02
  -8.0140244e-03   7.8794092e-03
  -3.8573818e-03   3.1168593e-03
  -5.9553660e-03  -2.4705860e-03
   2.9530281e-03  -5.4056097e-03
  -4.2798341e-03  -4.3861401e-03
  -8.2158559e-03  -1.4789293e-02
  -3.5960507e-03   2.8736889e-03
   7.5375525e-04  -2.8585305e-03
  -1.4756369e-03   8.7082699e-03
  -2.5092934e-03   1.7130006e-02
  -7.0401434e-03   8.2562623e-03
  -2.8874709e-03   3.2556083e-03
  -5.7592033e-03  -2.2989161e-03
   1.3426873e-03  -9.1058899e-03
  -4.8527733e-03  -5.5164227e-03
  -6.5678257e-03  -2.3496846e-02
  -3.8813849e-03  -3.5274886e-03
   2.5246832e-03  -2.4996596e-03
  -2.6216789e-03   8.9010887e-03
  -2.1825908e-03   1.6837442e-02
  -4.8726586e-03   6.5510244e-03
  -1.0981876e-03   2.4254109e-03
  -4.0773646e-03  -2.3726972e-03
  -1.4476085e-03  -1.3459181e-02
  -3.0450234e-03  -4.7929687e-03
  -4.5500431e-03  -2.9719818e-02
  -3.7804559e-03  -1.0147293e-02
   4.0730087e-03  -1.8449396e-03
  -3.6390004e-03   7.6805653e-03
  -1.5434428e-03   1.4314300e-02
  -1.2935850e-03   1.9197526e-03
   1.5749236e-03   3.1368560e-04
  -4.7055483e-04  -2.7228074e-03
  -5.6503276e-03  -1.8652917e-02
   2.0421205e-03  -1.1992014e-03
  -2.8274110e-03  -2.9215003e-02
  -3.2326550e-03  -1.4631864e-02
   4.6857992e-03  -1.2846991e-03
  -4.5669102e-03   4.0819357e-03
  -5.4401451e-04   8.8628334e-03
   3.9028796e-03  -6.6051981e-03
   5.1582020e-03  -3.4148925e-03
   5.4589505e-03  -3.1270864e-03
  -1.1402818e-02  -2.5133022e-02
   1.1256254e-02   6.4778581e-03
  -2.3787339e-03  -1.6820694e-02
  -2.2810806e-03  -1.3949159e-02
   3.4749080e-03  -1.1265823e-03
  -5.3904355e-03  -3.0660108e-03
   8.9572906e-04  -2.5720827e-04
   1.0927589e-02  -2.0084258e-02
   9.6468425e-03  -9.1076747e-03
   1.4018027e-02  -3.0324375e-03
  -1.8710906e-02  -3.3677053e-02
   2.5305088e-02   1.9621320e-02
  -4.4172856e-03   1.3085169e-02
  -1.0891851e-03  -4.6811213e-03
  -5.4362013e-04  -1.3456344e-03
  -5.9781989e-03  -1.5062582e-02
   2.9117673e-03  -1.3780432e-02
   2.0009064e-02  -3.9614250e-02
   1.5012924e-02  -1.7110242e-02
   2.5377901e-02  -1.5230725e-03
  -2.7423065e-02  -4.5442613e-02
   4.4669828e-02   3.9743648e-02
  -1.0256538e-02   6.5955452e-02
   5.9089218e-05   1.6557907e-02
  -8.3476501e-03  -1.2740916e-03
  -6.0578857e-03  -3.3207326e-02
   5.7010822e-03  -3.2371788e-02
   3.1391562e-02  -6.6242937e-02
   2.1211010e-02  -2.7751663e-02
