  -1.5616286e-02   7.4372793e-02
   2.0896385e-02  -2.8599992e-02
   6.4122301e-03  -1.1407286e-02
  -2.3055175e-02   2.0337646e-02
  -1.0602531e-02  -5.1133733e-02
   1.7797828e-02   6.8803743e-02
  -1.2522086e-02  -1.6218175e-01
   5.1261563e-04  -4.9858722e-03
  -2.7006115e-03   1.1387055e-02
  -5.1261563e-04   4.9858722e-03
  -1.2063170e-02   5.3677070e-02
   1.8025014e-02  -2.4413929e-02
   7.3428937e-03  -1.1008546e-02
  -5.9633018e-03   5.2015492e-03
   4.8169271e-04  -2.4150567e-03
   6.8251392e-03   1.9667241e-02
  -1.0639965e-02  -1.2910810e-01
   2.3318896e-04  -1.4233623e-03
  -1.9481750e-03   1.3948968e-02
  -2.3318896e-04   1.4233623e-03
  -8.7737529e-03   3.7262979e-02
   1.5233559e-02  -2.0281440e-02
   8.2793688e-03  -1.0518303e-02
   3.3655242e-03  -2.7384242e-03
   5.0008261e-03   2.0069603e-02
   7.6590355e-04  -8.6403270e-03
  -8.3199335e-03  -9.7352104e-02
   2.6882622e-05   9.6829766e-04
  -8.2113929e-04   1.7031656e-02
  -2.6882622e-05  -9.6829766e-04
  -5.9687506e-03   2.4217616e-02
   1.2640181e-02  -1.6367432e-02
   9.1340683e-03  -1.0056889e-02
   6.8614456e-03  -5.4895394e-03
   5.2886265e-03   2.4619820e-02
  -1.6752247e-03  -2.0932485e-02
  -5.9806717e-03  -6.8924885e-02
  -1.0218466e-04   2.1015915e-03
   3.9640796e-04   1.9581551e-02
   1.0218466e-04  -2.1015915e-03
  -3.7576206e-03   1.3903527e-02
   1.0329359e-02  -1.2781842e-02
   9.8544655e-03  -9.7322038e-03
   6.4516635e-03  -4.9040312e-03
   3.4020375e-03   1.8918980e-02
  -1.7473342e-03  -2.2179632e-02
  -4.0009256e-03  -4.5457039e-02
  -1.5428665e-04   2.1670038e-03
   1.4480835e-03   2.0744200e-02
   1.5428665e-04  -2.1670038e-03
  -2.1562528e-03   5.9156355e-03
   8.3530078e-03  -9.5805105e-03
   1.0421448e-02  -9.6318854e-03
   3.8767199e-03  -2.5677279e-03
   9.1276348e-04   9.1949994e-03
  -5.2862970e-04  -1.6938441e-02
  -2.6367425e-03  -2.7841202e-02
  -1.3930203e-04   1.5071913e-03
   2.1536945e-03   2.0070039e-02
   1.3930203e-04  -1.5071913e-03
  -1.1133715e-03   5.4278303e-06
   6.7340960e-03  -6.7737675e-03
   1.0844675e-02  -9.8177620e-03
   5.5122697e-04   2.7596514e-04
  -1.1744125e-03  -2.0105945e-04
   1.1475401e-03  -8.9494189e-03
  -1.9683008e-03  -1.6069128e-02
  -7.5899931e-05   5.0517985e-04
   2.4394134e-03   1.7602421e-02
   7.5899931e-05  -5.0517985e-04
  -5.3826096e-04  -4.0004708e-03
   5.4720297e-03  -4.3399543e-03
   1.1155519e-02  -1.0322760e-02
  -2.5114085e-03   2.7660824e-03
  -2.3884211e-03  -6.8213637e-03
   2.7159427e-03  -9.2802585e-04
  -1.8912423e-03  -9.2983606e-03
   1.2823847e-05  -5.0042576e-04
   2.3416199e-03   1.3831198e-02
  -1.2823847e-05   5.0042576e-04
  -3.2411256e-04  -6.2668150e-03
   4.5486718e-03  -2.2410276e-03
   1.1398348e-02  -1.1150255e-02
  -4.7081184e-03   4.4235902e-03
  -2.6776247e-03  -9.8434779e-03
   3.8605320e-03   5.4601587e-03
  -2.1555500e-03  -6.1196133e-03
   1.0467111e-04  -1.2673365e-03
   1.9832998e-03   9.5321877e-03
  -1.0467111e-04   1.2673365e-03
  -3.6400663e-04  -6.9899461e-03
   3.9339629e-03  -4.3720405e-04
   1.1621298e-02  -1.2275508e-02
  -5.8019972e-03   5.1071835e-03
  -2.2571467e-03  -9.6145797e-03
   4.4667896e-03   9.4769864e-03
  -2.4420795e-03  -4.9418074e-03
   1.8264316e-04  -1.6692626e-03
   1.5293129e-03   5.5434434e-03
  -1.8264316e-04   1.6692626e-03
  -5.5941236e-04  -6.4099324e-03
   3.5905444e-03   1.1021547e-03
   1.1867880e-02  -1.3648595e-02
  -5.8427332e-03   4.9329345e-03
  -1.4561387e-03  -7.1431539e-03
   4.5611564e-03   1.1095379e-02
  -2.4558671e-03  -4.3828107e-03
   2.3713940e-04  -1.6890298e-03
   1.1329661e-03   2.5443156e-03
  -2.3713940e-04   1.6890298e-03
  -8.2317075e-04  -4.8006697e-03
   3.4771815e-03   2.3931710e-03
   1.2170345e-02  -1.5198611e-02
  -5.0702201e-03   4.1745847e-03
  -5.9433037e-04  -3.6408327e-03
   4.2515623e-03   1.0746102e-02
  -2.0097967e-03  -3.5583516e-03
   2.6584962e-04  -1.3936057e-03
   8.8916268e-04   8.9877966e-04
  -2.6584962e-04   1.3936057e-03
  -1.0797287e-03  -2.4479855e-03
   3.5511083e-03   3.4379522e-03
   1.2545301e-02  -1.6839076e-02
  -3.8189619e-03   3.1630948e-03
   9.4741719e-05  -1.8301840e-04
   3.6787079e-03   9.0779780e-03
  -1.0746132e-03  -2.1973041e-03
   2.7182188e-04  -9.0025754e-04
   8.0766329e-04   6.0222085e-04
  -2.7182188e-04   9.0025754e-04
  -1.2651773e-03   3.7389041e-04
   3.7695654e-03   4.2299668e-03
   1.2991704e-02  -1.8474454e-02
  -2.4367709e-03   2.2011179e-03
   4.9085888e-04   2.4826568e-03
   2.9827032e-03   6.7675708e-03
   2.1870601e-04  -5.6693732e-04
   2.6060659e-04  -3.4215830e-04
   8.1395972e-04   1.3380553e-03
  -2.6060659e-04   3.4215830e-04
  -1.3288463e-03   3.4194404e-03
   4.0908189e-03   4.7623208e-03
   1.3490997e-02  -2.0007469e-02
  -1.2259213e-03   1.5020828e-03
   5.7539910e-04   3.9899815e-03
   2.2851548e-03   4.3954986e-03
   1.6236692e-03   7.5072303e-04
   2.3749080e-04   1.6020724e-04
   7.7678184e-04   2.6175027e-03
  -2.3749080e-04  -1.6020724e-04
  -1.2366469e-03   6.4787384e-03
   4.4749527e-03   5.0366096e-03
   1.4009129e-02  -2.1346578e-02
  -4.0853432e-04   1.1584368e-03
   3.9923593e-04   4.3081866e-03
   1.6829433e-03   2.3873656e-03
   2.8553236e-03   1.1487730e-03
   2.0566239e-04   5.1802087e-04
   5.5316777e-04   3.9529059e-03
  -2.0566239e-04  -5.1802087e-04
  -9.7508976e-04   9.3745456e-03
   4.8846029e-03   5.0701306e-03
   1.4500304e-02  -2.2412663e-02
  -1.1012426e-04   1.1420232e-03
   4.8413505e-05   3.6453288e-03
   1.2474691e-03   1.0031378e-03
   3.6758152e-03   2.5593086e-04
   1.6578468e-04   6.8242075e-04
   3.7048159e-05   5.0090143e-03
  -1.6578468e-04  -6.8242075e-04
  -5.5437122e-04   1.1953208e-02
   5.2854675e-03   4.8996093e-03
   1.4912070e-02  -2.3144357e-02
  -3.5310373e-04   1.3343363e-03
  -3.8120240e-04   2.3428397e-03
   1.0248755e-03   3.5497806e-04
   3.9630061e-03  -1.9105615e-03
   1.1703516e-04   6.4361749e-04
  -8.0334124e-04   5.6881112e-03
  -1.1703516e-04  -6.4361749e-04
  -8.9540371e-06   1.4074466e-02
   5.6461750e-03   4.5803512e-03
   1.5191080e-02  -2.3501993e-02
  -1.0584509e-03   1.5730520e-03
  -7.9900264e-04   7.8519747e-04
   1.0362381e-03   4.3689656e-04
   3.7421034e-03  -4.9384706e-03
   5.9218729e-05   4.2419393e-04
  -1.9104705e-03   6.1285730e-03
  -5.9218729e-05  -4.2419393e-04
   6.0506237e-04   1.5604735e-02
   5.9372683e-03   4.1810152e-03
   1.5289168e-02  -2.3470078e-02
  -2.0587506e-03   1.6959220e-03
  -1.1285082e-03  -6.6649879e-04
   1.2784344e-03   1.1547898e-03
   3.1712543e-03  -8.1512826e-03
  -4.8523794e-06   7.0400928e-05
  -3.1495136e-03   6.6245773e-03
   4.8523794e-06  -7.0400928e-05
   1.2156240e-03   1.6416980e-02
   6.1295475e-03   3.7756293e-03
   1.5169549e-02  -2.3058164e-02
  -3.1232898e-03   1.5711813e-03
  -1.3132360e-03  -1.7161568e-03
   1.7259514e-03   2.3505083e-03
   2.4863337e-03  -1.0824119e-02
  -6.7769159e-05  -3.5582404e-04
  -4.3434929e-03   7.4989797e-03
   6.7769159e-05   3.5582404e-04
   1.7426974e-03   1.6398540e-02
   6.1923168e-03   3.4351638e-03
   1.4812668e-02  -2.2300429e-02
  -3.9931694e-03   1.1147095e-03
  -1.3216479e-03  -2.1549862e-03
   2.3332926e-03   3.8192132e-03
   1.9230922e-03  -1.2408442e-02
  -1.1765886e-04  -7.8336096e-04
  -5.3203974e-03   8.9744254e-03
   1.1765886e-04   7.8336096e-04
   2.1074135e-03   1.5466033e-02
   6.0920856e-03   3.2206368e-03
   1.4221053e-02  -2.1254476e-02
  -4.4242092e-03   3.0007024e-04
  -1.1529555e-03  -1.8744003e-03
   3.0372134e-03   5.3239284e-03
   1.6416619e-03  -1.2690750e-02
  -1.4040559e-04  -1.1379609e-03
  -5.9575486e-03   1.1085398e-02
   1.4040559e-04   1.1379609e-03
   2.2412308e-03   1.3584353e-02
   5.7921995e-03   3.1787686e-03
   1.3422556e-02  -1.9999803e-02
  -4.2350721e-03  -8.3301571e-04
  -8.4284316e-04  -8.7720236e-04
   3.7583377e-03   6.6135065e-03
   1.6769775e-03  -1.1836611e-02
  -1.2352168e-04  -1.3496709e-03
  -6.2097370e-03   1.3657591e-02
   1.2352168e-04   1.3496709e-03
   2.0944566e-03   1.0785793e-02
   5.2538245e-03   3.3402727e-03
   1.2471558e-02  -1.8636021e-02
  -3.3556345e-03  -2.1705685e-03
  -4.6606928e-04   7.1097988e-04
   4.4027696e-03   7.4492806e-03
   1.9297828e-03  -1.0311943e-02
  -6.0563168e-05  -1.3630533e-03
  -6.1130425e-03   1.6357123e-02
   6.0563168e-05   1.3630533e-03
   1.6439523e-03   7.1855139e-03
   4.4385216e-03   3.7202357e-03
   1.1447875e-02  -1.7280600e-02
  -1.8672097e-03  -3.5202699e-03
  -1.3167067e-04   2.6352550e-03
   4.8649395e-03   7.6411221e-03
   2.1996465e-03  -8.7138928e-03
   4.5273433e-05  -1.1502124e-03
  -5.7639656e-03   1.8789194e-02
  -4.5273433e-05   1.1502124e-03
   9.0020287e-04   2.9906835e-03
   3.3123051e-03   4.3197471e-03
   1.0453481e-02  -1.6065679e-02
  -2.3026123e-05  -4.6178832e-03
   3.4381604e-05   4.5216291e-03
   5.0327771e-03   7.0873355e-03
   2.2483390e-03  -7.5706550e-03
   1.7953439e-04  -7.2454823e-04
  -5.2809269e-03   2.0611275e-02
  -1.7953439e-04   7.2454823e-04
  -8.6088832e-05  -1.4980921e-03
   1.8506423e-03   5.1279269e-03
   9.6074724e-03  -1.5133414e-02
   1.7646145e-03  -5.1506189e-03
  -7.8677031e-05   5.9155955e-03
   4.7965186e-03   5.8084748e-03
   1.8732322e-03  -7.1753051e-03
   3.1753329e-04  -1.5088475e-04
  -4.7600469e-03   2.1623820e-02
  -3.1753329e-04   1.5088475e-04
  -1.2179691e-03  -5.8933179e-03
   4.3347383e-05   6.1236142e-03
   9.0397039e-03  -1.4629868e-02
   2.9805839e-03  -4.8038754e-03
  -5.2609307e-04   6.3530423e-03
   4.0648900e-03   3.9663157e-03
   9.6812509e-04  -7.5038891e-03
   4.2808012e-04   4.5392962e-04
  -4.2383509e-03   2.1810871e-02
  -4.2808012e-04  -4.5392962e-04
  -2.3473021e-03  -9.7345256e-03
  -2.1019394e-03   7.2763830e-03
   8.8835828e-03  -1.4697738e-02
   3.1071505e-03  -3.3368299e-03
  -1.2748519e-03   5.4568559e-03
   2.7921014e-03   1.8613522e-03
  -4.4689672e-04  -8.2392492e-03
   4.7943210e-04   9.3549505e-04
  -3.6750629e-03   2.1319898e-02
  -4.7943210e-04  -9.3549505e-04
  -3.2726508e-03  -1.2508665e-02
  -4.5588338e-03   8.5472907e-03
   9.2688983e-03  -1.5468149e-02
   1.7592701e-03  -6.8406294e-04
  -2.1926016e-03   3.0495506e-03
   1.0146729e-03  -9.6291888e-05
  -2.2350760e-03  -8.8883633e-03
   4.4658833e-04   1.1339294e-03
  -2.9558572e-03   2.0389594e-02
  -4.4658833e-04  -1.1339294e-03
  -3.7419656e-03  -1.3675122e-02
  -7.2845758e-03   9.8903357e-03
   1.0315379e-02  -1.7052120e-02
  -1.1621714e-03   2.9330277e-03
  -3.0641192e-03  -7.2821058e-04
  -1.1067079e-03  -1.4427979e-03
  -4.1874750e-03  -8.9521484e-03
   3.1884727e-04   9.3071553e-04
  -1.9173329e-03   1.9250483e-02
  -3.1884727e-04  -9.3071553e-04
  -3.4611472e-03  -1.2691920e-02
  -1.0225818e-02   1.1255725e-02
   1.2127412e-02  -1.9532614e-02
  -5.3235534e-03   6.9125025e-03
  -3.6345826e-03  -5.3091035e-03
  -3.2479646e-03  -1.7369307e-03
  -6.0860190e-03  -8.0917541e-03
   1.0648459e-04   3.0142236e-04
  -3.8226515e-04   1.8030999e-02
  -1.0648459e-04  -3.0142236e-04
  -2.1086335e-03  -9.0391022e-03
  -1.3327374e-02   1.2595563e-02
   1.4790375e-02  -2.2957891e-02
  -9.8456862e-03   1.0228311e-02
  -3.6723585e-03  -9.6229975e-03
  -4.8942816e-03  -6.4365948e-04
  -7.7628879e-03  -6.2389318e-03
  -1.5461658e-04  -6.3931739e-04
   1.8069939e-03   1.6698722e-02
   1.5461658e-04   6.3931739e-04
   6.4438525e-04  -2.2363670e-03
  -1.6543039e-02   1.3871563e-02
   1.8368802e-02  -2.7336786e-02
  -1.3251863e-02   1.1463185e-02
  -3.0380290e-03  -1.2077930e-02
  -5.3339414e-03   1.9916850e-03
  -9.1359987e-03  -3.6183003e-03
  -4.0157207e-04  -1.6157002e-03
   4.7681661e-03   1.5053977e-02
   4.0157207e-04   1.6157002e-03
   5.1088880e-03   8.1457588e-03
  -1.9847206e-02   1.5063403e-02
   2.2906348e-02  -3.2636291e-02
  -1.3497911e-02   8.9282138e-03
  -1.7420489e-03  -1.0618126e-02
  -3.6809297e-03   6.0951516e-03
  -1.0209126e-02  -6.7868196e-04
  -5.4742440e-04  -2.2039764e-03
   8.5777684e-03   1.2775803e-02
   5.4742440e-04   2.2039764e-03
   1.1549983e-02   2.2480345e-02
  -2.3245654e-02   1.6175934e-02
   2.8427360e-02  -3.8781512e-02
  -8.0930659e-03   8.5911863e-04
   2.6683289e-05  -2.8690974e-03
   1.0701672e-03   1.1354194e-02
  -1.1037550e-02   2.0412820e-03
  -4.8905481e-04  -1.8866696e-03
   1.3287971e-02   9.5044876e-03
   4.8905481e-04   1.8866696e-03
   2.0159250e-02   4.1082660e-02
  -2.6783872e-02   1.7243598e-02
   3.4939782e-02  -4.5657832e-02
   5.6969301e-03  -1.4338626e-02
   1.9145157e-03   1.3632652e-02
   9.9577816e-03   1.7250403e-02
  -1.1671624e-02   4.0706286e-03
  -1.1992134e-04  -1.4369035e-04
   1.8954377e-02   4.9355940e-03
   1.1992134e-04   1.4369035e-04
   3.1031124e-02   6.4210839e-02
  -3.0551645e-02   1.8330995e-02
   4.2438998e-02  -5.3115121e-02
   3.0590769e-02  -3.7835053e-02
   3.4620833e-03   4.1139395e-02
   2.3943196e-02   2.3132584e-02
  -1.2097798e-02   5.1415989e-03
   6.5363148e-04   3.4341821e-03
   2.5663788e-02  -1.1002688e-03
  -6.5363148e-04  -3.4341821e-03
