  -2.1627978e-03  -4.7789408e-03   1.1055099e-01   1.7026190e-02   1.0362041e-01   2.2453075e-01  -2.2579748e-01  -1.4464644e-01  -1.5673704e-01  -2.3976697e-01   2.3301317e-01  -9.7443896e-01  -2.5836093e-01  -1.8021410e-01  -1.6786688e-01   3.1236173e-01   3.0965187e-01  -7.9180725e-01   1.0881288e+00  -8.1787669e-01  -1.8341590e-02  -3.9867531e-02  -8.3163594e-01
  -1.4614445e-02   3.0688287e-02   7.7353258e-02  -6.4487875e-03  -3.1014386e-01  -2.7126796e-01   1.9392921e-01   8.6760977e-05  -6.7226475e-01  -4.5312845e-01  -4.1913475e-01  -3.6139849e-01   4.3977871e-01   3.6366708e-01   8.1173365e-01  -3.6658990e-01   3.3525807e-01   2.4881555e-01  -3.5827138e-01  -2.0913720e-01   1.4257119e+00  -9.8929100e-01  -4.9639132e-01
  -2.4192731e-02   2.4365079e-03  -2.3557106e-02   1.4315111e-01  -1.1626692e-01   2.5898424e-02  -2.2492567e-01   6.4510522e-01   1.0595951e-01   3.4331321e-01   2.8574828e-01   1.6051215e-01  -3.3681950e-01  -3.1880731e-02   8.9385550e-01   2.5666626e-01   2.1924105e-01   4.4606074e-03   8.5653706e-01  -1.2005524e-01   6.4703760e-01  -4.6516472e-01   3.5494306e-01
   1.1275094e-02   3.9854199e-02  -3.5606424e-02  -4.5727742e-02  -8.6357652e-02  -1.7940885e-01   1.0095279e-01  -1.9713794e-01   4.4721835e-02  -2.6215001e-01  -3.1775402e-01   3.4224413e-01   2.7678112e-02  -1.1382035e+00   1.4310215e-01  -7.4563362e-01  -4.5500984e-01   7.8523733e-01  -9.0053367e-02   1.0814699e+00  -1.2965578e+00  -2.8647590e-01  -7.5504823e-01
   6.0399855e-04  -2.2439613e-02   9.5086569e-02   1.4310805e-02  -2.8575987e-02  -5.9748383e-03   8.2617614e-02  -5.6037344e-01  -1.3863915e-01  -5.0710831e-02   6.1322644e-01   1.1707747e-01  -7.2608979e-02  -6.1530502e-01   2.5526199e-01  -1.5107097e+00  -5.1595004e-01   9.8524561e-01  -6.0294519e-01  -7.4273614e-02  -4.9744043e-01   4.5790085e-01   3.0951948e-01
  -4.6322651e-03   4.9560897e-02   1.1603050e-01   7.3533860e-02  -2.5628962e-02  -2.8746249e-01  -7.8978949e-02  -1.7596080e-01  -9.2988605e-02  -4.3344772e-01   6.5957022e-01   7.9984812e-01   8.0514846e-01   2.7387618e-01  -6.9788708e-01   1.0494396e+00  -1.1369009e+00  -1.2201458e-01   3.9010841e-01   9.4350110e-02  -3.9430386e-01  -1.2186198e+00   1.7112349e-01
   8.9494910e-04   4.9763771e-02   2.9826350e-02  -2.5490906e-01  -2.0791119e-02   1.9370691e-02  -3.7994146e-02   1.6036114e-01  -1.4899617e-01   1.7437323e-02   5.8958194e-01   7.7862930e-01  -6.3334774e-01  -4.2552634e-02  -3.3496928e-01  -4.6039408e-01   3.8683143e-01  -1.8264744e+00  -6.7356728e-01   9.2852308e-01  -2.1265615e+00   4.7930367e-01  -1.2253123e+00
  -3.7510775e-03   9.9387522e-02   2.9698644e-02  -7.4629325e-02   1.5440127e-01  -3.3937020e-02   1.1129388e-01   3.1062858e-01   1.9684656e-01  -3.2227701e-01  -1.1338371e-01  -8.6226912e-02  -6.1160841e-02   1.8823702e+00   2.6403113e-01  -1.5274515e+00   1.3641307e-02   8.9051202e-01   1.5342747e-01  -7.5368821e-01   1.8943384e-01   1.5668834e+00   2.8105251e-01
   6.1241961e-02   1.2702022e-01   5.0204994e-02   8.1755238e-02  -1.6834311e-01   1.2270658e-01  -4.0276929e-01  -5.4036159e-02   3.4854081e-02  -4.4516666e-01   5.9896855e-01   4.3006946e-02  -5.0428712e-01   3.7092026e-01   4.7447180e-01  -2.2299655e-01   4.1840536e-01   7.1904501e-01   2.0079501e+00   1.0383834e+00  -5.9540889e-01  -1.5948114e-02   1.1150211e+00
  -2.3452960e-02   4.5855669e-02  -6.9303075e-02  -9.4520804e-02  -1.3899728e-01   1.1371094e-01  -4.5589005e-01  -2.4942951e-03   3.2569479e-01  -4.1790908e-01   9.3791349e-02  -5.1775111e-01  -8.5937419e-02  -5.2818750e-01  -1.0739165e-01  -4.3588638e-01   3.5623151e-01   1.3313011e-01   1.3838158e+00   1.3983734e+00   1.1526430e+00  -1.3002368e+00  -8.4982309e-01
  -4.0086911e-03  -3.0386136e-03   8.1466181e-02   2.0850110e-02   7.2499954e-02   1.5211687e-01  -1.5679116e-01  -1.1400601e-01  -1.2575117e-01  -1.7067046e-01   2.1609156e-01  -6.6049212e-01  -2.4049922e-01  -1.3413511e-01  -1.1947305e-01   1.3717959e-01   1.3009525e-01  -4.7136970e-01   7.3877283e-01  -5.8268073e-01   1.1449178e-01  -2.4721218e-02  -5.3183601e-01
  -9.5820570e-03   2.2894978e-02   6.8679045e-02  -4.3877361e-03  -2.4866934e-01  -2.0845802e-01   1.4357699e-01   6.7341192e-04  -5.3094667e-01  -3.7339997e-01  -2.7958149e-01  -3.0556868e-01   3.1014092e-01   2.8642136e-01   6.4395700e-01  -2.7602076e-01   2.8003206e-01   2.1439956e-01  -1.8009838e-01  -2.7948113e-01   9.8017810e-01  -7.0577751e-01  -4.3022683e-01
  -1.0742470e-02  -1.4305584e-03  -7.2020680e-03   5.1413267e-02  -4.0125705e-02   2.5003626e-02  -9.5382851e-02   2.6671216e-01   4.3572398e-02   1.3285838e-01   8.8577941e-02   1.0201799e-02  -1.3677830e-01   4.6741450e-02   2.8119475e-01   1.8051422e-01   8.3128865e-02  -1.3296530e-01   3.3565147e-01  -1.3829719e-01   2.4114221e-01  -1.3779013e-01   1.2647196e-01
   7.1998365e-03   1.2617152e-02  -7.8692841e-03  -1.7744015e-02  -7.5869799e-03  -4.5358058e-02   4.7216846e-02  -8.8597432e-02   2.1237592e-02  -7.1837130e-02  -8.7669643e-02   8.2538385e-02   2.6884953e-03  -3.7837577e-01  -2.8315378e-02  -1.7789231e-01  -1.5231825e-01   2.3711065e-01  -1.0024719e-02   3.2425480e-01  -4.2478459e-01  -3.6983816e-02  -1.6882559e-01
   3.9742180e-03  -1.7090186e-02   8.1867053e-02   1.9185867e-02  -2.9437860e-02   1.1002089e-02   4.8401573e-02  -4.4323029e-01  -1.3951531e-01  -4.9503884e-02   4.4606668e-01   2.7180714e-03  -2.4645384e-02  -4.6851047e-01   1.4982071e-01  -9.8535429e-01  -3.2926761e-01   5.7358554e-01  -2.9667769e-01  -1.2059084e-01  -3.2895097e-01   2.3247481e-01   2.8777798e-01
  -2.9924729e-03   3.6253451e-02   8.5894842e-02   5.9836052e-02  -3.0811560e-02  -2.1338060e-01  -5.1239578e-02  -9.5500572e-02  -7.1406846e-02  -2.9787825e-01   5.3411106e-01   5.8400398e-01   5.8183258e-01   3.0141538e-01  -5.0760437e-01   8.5183846e-01  -7.5716765e-01  -1.1934390e-01   3.0430646e-01   5.3740825e-02  -1.8981565e-01  -9.2907972e-01   2.2423820e-01
  -2.1456265e-03   3.4651665e-02   1.7841012e-02  -1.5612084e-01   1.3905807e-02   2.2555213e-02   2.0270147e-02   9.0226046e-02  -1.5236802e-01   5.5576929e-02   2.4847041e-01   5.3075305e-01  -3.4716227e-01  -2.3546093e-01  -2.3115336e-01  -7.1798859e-02   5.9794831e-02  -1.1281899e+00  -5.3425637e-01   4.8159423e-01  -1.1931854e+00  -1.4403989e-02  -6.1490623e-01
  -3.9209001e-04   7.0887725e-02   2.9360471e-02  -2.6699366e-02   1.3036361e-01  -4.7984929e-02   1.3913222e-01   2.1777463e-01   7.7750173e-02  -1.7118912e-01  -1.6545464e-01  -1.1638698e-01   7.3629615e-02   1.0969574e+00   2.0250405e-01  -7.0423604e-01  -1.9659103e-01   6.3774901e-01   5.6269408e-02  -6.2118453e-01   3.7153265e-01   7.8866348e-01   3.4076441e-01
   3.8401241e-02   7.8615501e-02   3.3268211e-02   5.8508524e-02  -8.5126852e-02   8.5180056e-02  -2.1584333e-01  -4.8217324e-02  -2.8677890e-03  -2.3751469e-01   2.7561919e-01   4.6589275e-02  -2.6333502e-01   1.5561424e-01   2.3109282e-01  -1.3000628e-01   1.6455428e-01   4.6481858e-01   9.7546834e-01   5.4366330e-01  -3.3725808e-01   2.9399135e-03   6.1217266e-01
  -1.5752796e-02   3.1050463e-02  -4.7449956e-02  -4.5360774e-02  -8.6847202e-02   7.1354345e-02  -2.5755503e-01   5.0420678e-03   1.9728219e-01  -2.1873192e-01   3.7329393e-02  -3.4224557e-01  -2.1700929e-02  -4.2382027e-01  -9.2183089e-02  -1.8542687e-01   1.2234943e-01  -2.0244451e-02   6.7457519e-01   7.5075477e-01   8.4138992e-01  -7.7938077e-01  -3.7941766e-01
  -4.8506920e-03  -8.5953231e-04   5.5047724e-02   2.3681809e-02   4.8140738e-02   9.2455102e-02  -1.0191591e-01  -7.3485528e-02  -9.8253496e-02  -1.0704199e-01   1.7501359e-01  -4.0742771e-01  -2.0342186e-01  -6.6930988e-02  -9.0005204e-02   5.6048513e-02   2.3246515e-03  -2.6773110e-01   4.6924223e-01  -4.0300296e-01   2.3058518e-01  -3.5458160e-02  -2.7959837e-01
  -5.2237406e-03   1.6209034e-02   5.8754358e-02  -3.2776083e-03  -1.9634961e-01  -1.5941716e-01   1.0354542e-01  -2.9579210e-03  -4.0965397e-01  -3.0724959e-01  -1.6616513e-01  -2.4620761e-01   2.0303373e-01   1.9361903e-01   4.9333343e-01  -2.0906693e-01   2.1415720e-01   1.9830996e-01  -3.3789279e-02  -3.0005827e-01   5.7691420e-01  -4.7087225e-01  -3.6438614e-01
  -1.9960173e-03  -3.1495524e-03   2.5307624e-03  -5.5129073e-03   7.1464081e-03   2.0234917e-02  -1.1937611e-02   2.2314569e-02   4.3677623e-03  -5.7783508e-04  -3.0807913e-02  -6.9496966e-02  -1.4528398e-02   7.8022066e-02  -7.7421347e-02   9.8644259e-02  -2.0674776e-03  -1.7253090e-01   8.6531885e-03  -1.2426002e-01  -2.0690346e-02   5.6720614e-02  -1.5981477e-02
   4.5471930e-03  -4.5086823e-03   8.0644867e-03   3.7735440e-04   4.2553025e-02   3.8536890e-02   1.0835158e-03  -2.0298146e-02   2.0575343e-02   4.5340054e-02   6.5390677e-02  -5.9950746e-02  -2.7923385e-02   7.9390974e-02  -1.3258414e-01   1.3987871e-01   2.8392405e-02  -8.0308559e-02   6.8726395e-02  -1.0773283e-01   4.9563573e-02   1.2542634e-01   1.7471231e-01
   6.0579886e-03  -1.2848936e-02   7.2240782e-02   2.2791523e-02  -2.6522387e-02   3.2027549e-02   1.9287543e-02  -3.4217362e-01  -1.3839192e-01  -5.4072481e-02   3.1793903e-01  -1.0663808e-01  -2.0129018e-03  -3.5908956e-01   6.8565169e-02  -5.6270085e-01  -1.7504754e-01   2.4469028e-01  -3.9203899e-02  -1.7382831e-01  -1.9526688e-01   6.9938027e-02   2.4522290e-01
  -9.1780605e-04   2.5706026e-02   6.0652262e-02   4.8008254e-02  -3.4258442e-02  -1.5204832e-01  -3.4201367e-02  -2.8449885e-02  -5.1314743e-02  -1.8683827e-01   4.1751054e-01   4.0363746e-01   4.0262191e-01   3.2657146e-01  -3.4521816e-01   6.9882994e-01  -4.4873919e-01  -1.0913605e-01   2.3664331e-01   1.7700545e-02  -3.6436288e-02  -6.7812196e-01   2.5149881e-01
  -4.5891948e-03   1.9597946e-02   8.1060995e-03  -8.2838491e-02   3.2407763e-02   2.9565465e-02   4.7891940e-02   3.2807814e-02  -1.3399282e-01   6.6724931e-02   2.0246126e-02   3.1354439e-01  -1.3320857e-01  -3.0635900e-01  -1.5206585e-01   1.7629320e-01  -1.2155319e-01  -5.6335430e-01  -3.6746190e-01   1.6937922e-01  -4.9475948e-01  -3.0639571e-01  -1.7172439e-01
   1.6905081e-03   4.3633080e-02   2.8607163e-02   3.7778395e-03   9.9543132e-02  -5.1543548e-02   1.4339543e-01   1.3892698e-01   2.0151482e-03  -6.8349508e-02  -1.5935917e-01  -1.4688080e-01   1.5577552e-01   5.2897874e-01   1.4193787e-01  -1.0262095e-01  -2.7604772e-01   4.2545433e-01   2.6030989e-02  -4.5557351e-01   4.3311102e-01   2.4516644e-01   3.4840100e-01
   2.0520208e-02   3.9903937e-02   1.9953335e-02   3.9460281e-02  -2.4408534e-02   5.7114827e-02  -7.6938692e-02  -4.0686526e-02  -2.5133644e-02  -8.6199655e-02   5.2698215e-02   3.9861077e-02  -9.3396356e-02   1.2113070e-02   5.2279158e-02  -5.9882211e-02   6.4108101e-03   2.6071641e-01   2.4414598e-01   1.8158301e-01  -1.3897101e-01   3.3544004e-02   2.3715689e-01
  -9.4693990e-03   1.8389954e-02  -2.9198766e-02  -1.1714896e-02  -5.2307938e-02   3.8496139e-02  -1.1125952e-01   6.3350142e-03   1.0477589e-01  -7.6657576e-02   7.5037356e-03  -2.0211788e-01   1.8480005e-02  -3.0590520e-01  -8.0527341e-02  -1.7316353e-02  -1.9675235e-02  -1.3002011e-01   1.7072241e-01   2.8552341e-01   5.5216227e-01  -3.5454999e-01  -3.8760452e-02
  -5.0824687e-03   1.2671055e-03   3.1981414e-02   2.5336310e-02   3.0649290e-02   4.6301358e-02  -5.9770655e-02  -2.7835720e-02  -7.3899608e-02  -5.0284286e-02   1.2026066e-01  -2.1271803e-01  -1.5632404e-01   8.2138154e-03  -7.4844994e-02   4.1506407e-02  -8.1501995e-02  -1.5608740e-01   2.6973124e-01  -2.7408981e-01   3.2466084e-01  -5.9235367e-02  -7.8009827e-02
  -1.6135230e-03   1.0454637e-02   4.8467669e-02  -2.6082120e-03  -1.5239726e-01  -1.2198039e-01   7.2369102e-02  -8.5419571e-03  -3.0851468e-01  -2.5171362e-01  -7.5798317e-02  -1.8786787e-01   1.1748870e-01   9.9406493e-02   3.5972381e-01  -1.5778440e-01   1.4550828e-01   1.9099192e-01   8.1808470e-02  -2.8643123e-01   2.2987455e-01  -2.7948079e-01  -2.9460737e-01
   2.8017410e-03  -3.3836896e-03   6.8887624e-03  -3.4042430e-02   3.0547417e-02   1.3282448e-02   3.3183216e-02  -1.0884558e-01  -1.6603734e-02  -6.9816197e-02  -9.0874085e-02  -9.6949643e-02   4.6062337e-02   7.6893589e-02  -2.3921347e-01   2.8168452e-02  -4.7583320e-02  -1.5179725e-01  -1.6184758e-01  -9.3636512e-02  -1.6190271e-01   1.4663709e-01  -8.7217073e-02
   3.0980584e-03  -1.2920024e-02   1.4258355e-02   1.0436350e-02   6.9165190e-02   8.0177445e-02  -3.3150730e-02   1.3777554e-02   3.4514896e-02   1.0551734e-01   1.4835023e-01  -1.0881230e-01  -5.4638039e-02   2.9298787e-01  -1.8404244e-01   2.6851404e-01   1.0299526e-01  -2.1401928e-01   1.2411709e-01  -2.8696151e-01   2.3033777e-01   2.1098995e-01   3.3535786e-01
   6.9722097e-03  -9.6555063e-03   6.5501848e-02   2.5448424e-02  -2.1653296e-02   5.4186967e-02  -3.7276068e-03  -2.5855152e-01  -1.3615205e-01  -6.2940333e-02   2.2518495e-01  -2.0497701e-01  -1.8628534e-03  -2.8386536e-01   1.3001561e-02  -2.4271898e-01  -5.3491872e-02   1.2228985e-03   1.6921994e-01  -2.2381816e-01  -9.2055892e-02  -3.8949898e-02   1.8761983e-01
   1.3579351e-03   1.7935698e-02   4.0519726e-02   3.7727597e-02  -3.6616030e-02  -1.0431929e-01  -2.6585736e-02   2.4105117e-02  -3.3597375e-02  -1.0175414e-01   3.1235141e-01   2.5978918e-01   2.6810022e-01   3.4820230e-01  -2.1597158e-01   5.8525847e-01  -2.1111937e-01  -9.2515571e-02   1.8588634e-01  -1.0545086e-02   6.7509927e-02  -4.7168323e-01   2.5440193e-01
  -6.3109598e-03   7.0012476e-03   3.2346829e-04  -3.1931218e-02   3.9082084e-02   3.7522522e-02   5.2326136e-02  -9.3568892e-03  -1.0199039e-01   5.8954847e-02  -1.2003924e-01   1.3698540e-01   1.5347826e-02  -2.8725535e-01  -9.2239673e-02   2.9791806e-01  -1.9698915e-01  -1.2850097e-01  -1.9932895e-01  -3.8279042e-02  -1.1221417e-03  -4.3937492e-01   1.2068788e-01
   2.9807829e-03   2.0542112e-02   2.7516338e-02   1.9310993e-02   6.5266331e-02  -4.8975452e-02   1.2937969e-01   7.6772057e-02  -3.8755887e-02  -4.6180741e-03  -1.1523682e-01  -1.6416822e-01   1.8978811e-01   1.4608742e-01   8.8540921e-02   2.9040110e-01  -2.6172964e-01   2.4465572e-01   3.3096266e-02  -2.7714433e-01   3.9276581e-01  -1.0063072e-01   3.0606138e-01
   7.3968135e-03   1.1059336e-02   9.9245166e-03   2.4724221e-02   1.6363831e-02   3.6714023e-02   1.8958115e-02  -3.1138674e-02  -3.4947625e-02   1.5355685e-02  -8.7124057e-02   2.8943717e-02   1.6281621e-02  -7.0598144e-02  -6.6854207e-02  -1.2812488e-02  -7.7514212e-02   1.0699175e-01  -2.3060499e-01  -6.6680563e-02   3.8994266e-03   6.6787850e-02  -2.7379617e-02
  -4.4672391e-03   8.8304888e-03  -1.4833122e-02   8.5394129e-03  -3.1956707e-02   1.3687606e-02  -1.1487821e-02   4.2625259e-03   4.2787389e-02   1.6993283e-02  -4.1549341e-03  -9.1686258e-02   3.8315431e-02  -1.8856375e-01  -7.0229040e-02   7.7575140e-02  -9.0644700e-02  -2.0682089e-01  -1.6275222e-01  -2.4249949e-02   2.9298945e-01  -2.7615299e-02   1.8355880e-01
  -5.0390643e-03   2.9257893e-03   1.2642093e-02   2.5730122e-02   1.9473921e-02   1.3344884e-02  -2.8676728e-02   1.8458419e-02  -5.2271072e-02  -1.5033604e-03   6.0843143e-02  -7.1506920e-02  -1.0719712e-01   8.0151147e-02  -6.8670197e-02   6.7777296e-02  -1.2906042e-01  -1.1129204e-01   1.3004659e-01  -1.8807700e-01   3.9245198e-01  -8.5943974e-02   7.2525317e-02
   1.2281751e-03   5.5431399e-03   3.8512783e-02  -1.9968938e-03  -1.1609127e-01  -9.4169324e-02   4.8546395e-02  -1.4279782e-02  -2.2672913e-01  -2.0445830e-01  -5.7155374e-03  -1.3349116e-01   5.1834973e-02   1.3373534e-02   2.4297416e-01  -1.1693839e-01   8.0094778e-02   1.8542280e-01   1.6859680e-01  -2.5092434e-01  -5.3639005e-02  -1.2654793e-01  -2.1990137e-01
   4.5082643e-03  -2.7601707e-03   7.2096698e-03  -4.1408792e-02   3.5891820e-02   5.8094724e-03   4.9083584e-02  -1.5202675e-01  -2.3963452e-02  -9.0157211e-02  -1.0862396e-01  -8.9456912e-02   6.1728439e-02   5.6247423e-02  -2.6234604e-01  -2.1124100e-02  -6.4541742e-02  -1.0188892e-01  -2.1621867e-01  -5.8430559e-02  -2.1014301e-01   1.6145368e-01  -1.0453729e-01
   2.5763252e-03  -1.4541183e-02   1.3181316e-02   1.4368123e-02   7.8023693e-02   8.9497091e-02  -5.3985102e-02   2.1705102e-02   5.5779111e-02   1.2501631e-01   1.7364067e-01  -9.0865879e-02  -7.1909255e-02   3.2743179e-01  -1.9773137e-01   2.6879638e-01   9.6121677e-02  -2.1653077e-01   1.4582265e-01  -2.8776257e-01   2.1803502e-01   2.3511145e-01   3.6974449e-01
   6.8962815e-03  -7.3349745e-03   6.0934857e-02   2.7463483e-02  -1.6333160e-02   7.4951318e-02  -2.0342756e-02  -1.9217367e-01  -1.3346229e-01  -7.4455105e-02   1.6285264e-01  -2.8751821e-01  -2.0248321e-02  -2.3687163e-01  -1.7311950e-02  -1.9159552e-02   3.6898843e-02  -1.6075784e-01   3.3025334e-01  -2.6341363e-01  -1.4073942e-02  -1.0412636e-01   1.2138061e-01
   3.6054963e-03   1.2739710e-02   2.5494470e-02   2.8668247e-02  -3.8488333e-02  -6.9935449e-02  -2.6664135e-02   6.2000862e-02  -1.8810052e-02  -4.2376788e-02   2.2114941e-01   1.5150324e-01   1.7614238e-01   3.6572170e-01  -1.2274316e-01   5.0444574e-01  -3.9804467e-02  -7.1652745e-02   1.5040227e-01  -2.9427433e-02   1.2671855e-01  -3.1149062e-01   2.3591425e-01
  -7.2429388e-03  -1.5429648e-03  -5.7882311e-03   5.7638694e-04   3.8589842e-02   4.4386186e-02   4.2151791e-02  -3.5655290e-02  -6.4962158e-02   4.1260093e-02  -1.9698494e-01   5.6264099e-03   1.0930139e-01  -2.1251006e-01  -4.6577251e-02   3.1645158e-01  -2.0505890e-01   1.8477650e-01  -5.1000012e-02  -1.7193462e-01   3.2440502e-01  -4.5786120e-01   2.8672477e-01
   3.9007279e-03   3.8237248e-03   2.6128250e-02   2.3207066e-02   3.1445412e-02  -4.3809830e-02   1.0399628e-01   3.2383265e-02  -5.4618713e-02   3.1084656e-02  -5.3956297e-02  -1.5967832e-01   1.8477686e-01  -9.0459346e-02   4.7382908e-02   4.9965144e-01  -1.9162457e-01   8.8549794e-02   5.1129364e-02  -1.0806534e-01   2.7725889e-01  -2.9250044e-01   2.2225299e-01
  -1.3610783e-03  -8.2932289e-03   2.7847798e-03   1.4261078e-02   4.0347112e-02   2.2299085e-02   7.8234869e-02  -1.9821469e-02  -3.5746064e-02   7.5078475e-02  -1.6171534e-01   1.8236476e-02   7.7859370e-02  -1.0568764e-01  -1.3326698e-01   1.3917491e-02  -1.0837513e-01   1.5655328e-03  -4.9620273e-01  -2.2222613e-01   9.8671790e-02   9.4218520e-02  -1.9938926e-01
  -6.0371476e-04   2.9148344e-03  -4.3797923e-03   1.8047538e-02  -2.1989223e-02  -4.3320423e-03   4.9176385e-02   1.1564138e-03   4.9978720e-03   7.2248912e-02  -6.1432197e-03  -6.2140071e-03   4.2952324e-02  -8.5303399e-02  -5.9525632e-02   1.1300177e-01  -1.1179763e-01  -2.5957437e-01  -3.6182104e-01  -2.0968751e-01   7.2016117e-02   2.0261268e-01   3.0503219e-01
  -4.9766231e-03   3.8420817e-03  -2.8888339e-03   2.4869921e-02   1.3574909e-02  -7.6713774e-03  -6.8349301e-03   6.1571633e-02  -3.2900214e-02   3.8545602e-02   3.8611915e-03   2.3040626e-02  -6.2445021e-02   1.4043017e-01  -6.6122780e-02   1.1238885e-01  -1.4773644e-01  -1.0978249e-01   3.9747382e-02  -1.3522355e-01   4.3099564e-01  -1.0834888e-01   1.7411498e-01
   3.3313083e-03   1.4561828e-03   2.9384235e-02  -1.1951054e-03  -8.6740933e-02  -7.4230354e-02   3.0691961e-02  -1.8966774e-02  -1.6274204e-01  -1.6377698e-01   4.6463557e-02  -8.4594103e-02   3.9425794e-03  -5.9218546e-02   1.4278161e-01  -8.3543922e-02   2.1886900e-02   1.7715771e-01   2.2887418e-01  -2.0271121e-01  -2.7218871e-01  -7.1951431e-03  -1.4192140e-01
   4.0073905e-03  -1.8039118e-03   4.8123651e-03  -3.4894281e-02   2.9150564e-02  -7.3031535e-04   4.5165940e-02  -1.3405833e-01  -2.1858668e-02  -7.7479580e-02  -9.8932281e-02  -6.2306935e-02   4.8267469e-02   2.6447785e-02  -2.0072792e-01  -4.6258580e-02  -6.3041008e-02  -4.6120535e-02  -1.9389331e-01  -2.6867388e-02  -1.9420210e-01   1.2924018e-01  -8.5888217e-02
   2.6788470e-03  -1.1565419e-02   7.4287960e-03   1.4057653e-02   7.4935402e-02   7.7268588e-02  -6.2108828e-02   1.2374734e-02   7.8594814e-02   1.1900490e-01   1.5716343e-01  -3.2918543e-02  -7.7799103e-02   2.4750110e-01  -1.8799869e-01   1.9603292e-01   3.6775254e-02  -1.3999256e-01   1.3311689e-01  -1.8014249e-01   1.0196315e-01   2.1622849e-01   3.2772998e-01
   6.0532159e-03  -5.6168319e-03   5.7861723e-02   2.9108827e-02  -1.1643592e-02   9.2321469e-02  -3.0821692e-02  -1.4160151e-01  -1.3082706e-01  -8.6883687e-02   1.2500796e-01  -3.5092465e-01  -5.2513178e-02  -2.1068776e-01  -2.4655161e-02   1.1906803e-01   9.8822891e-02  -2.5069285e-01   4.4696837e-01  -2.8863758e-01   4.4375263e-02  -1.3562704e-01   5.2814153e-02
   5.6167767e-03   9.7425921e-03   1.5354928e-02   2.0531909e-02  -4.0408626e-02  -4.7702495e-02  -3.2439139e-02   8.5974290e-02  -7.1426439e-03  -6.9542524e-03   1.4616571e-01   7.6150097e-02   1.2227851e-01   3.7918747e-01  -6.5909518e-02   4.4886415e-01   7.3067733e-02  -4.9447284e-02   1.2835701e-01  -3.8843001e-02   1.4815177e-01  -1.9547616e-01   2.0011135e-01
  -7.4320673e-03  -5.6343888e-03  -1.0475454e-02   1.9033351e-02   3.5097157e-02   4.9107813e-02   2.5711740e-02  -4.7663447e-02  -3.0433423e-02   2.1645022e-02  -2.3168967e-01  -8.2039586e-02   1.6160451e-01  -1.1423012e-01  -1.1437426e-02   2.6235823e-01  -1.7870956e-01   3.9023545e-01   6.4371159e-02  -2.5729801e-01   5.2072484e-01  -4.0319378e-01   3.5638445e-01
   4.7200323e-03  -5.5961668e-03   2.4477152e-02   1.9189499e-02   1.8185278e-03  -3.8427911e-02   7.4557051e-02   4.6802077e-03  -5.5601163e-02   4.9643502e-02   6.4754651e-03  -1.3125038e-01   1.5287056e-01  -2.2087043e-01   2.1112841e-02   5.6059573e-01  -9.9944089e-02  -4.6059501e-02   6.1013475e-02   3.3127292e-02   1.1772709e-01  -3.7529169e-01   1.1125131e-01
  -6.3178381e-03  -1.9129014e-02  -1.8983980e-03   7.8542537e-03   5.0940305e-02   1.2437031e-02   1.0797416e-01  -7.5591293e-03  -3.0862534e-02   1.0140376e-01  -1.8799012e-01   1.0120508e-02   1.0383264e-01  -1.0669661e-01  -1.5575688e-01   2.5398948e-02  -1.0525220e-01  -5.9417950e-02  -5.9977653e-01  -3.0603099e-01   1.5436603e-01   1.0932255e-01  -2.9640021e-01
   2.2364381e-03   5.5711238e-04   2.3880160e-03   1.9696682e-02  -1.8721839e-02  -1.6530373e-02   7.9106653e-02  -1.6012085e-03  -1.4944499e-02   9.9130480e-02  -5.4015277e-03   5.7482691e-02   3.8131854e-02  -6.9671821e-03  -4.7642988e-02   1.0630414e-01  -1.0239556e-01  -2.9465171e-01  -4.6022289e-01  -3.0191093e-01  -1.0396254e-01   3.4160443e-01   3.4753846e-01
  -5.0602044e-03   3.9250674e-03  -1.4782683e-02   2.2844073e-02   1.1631687e-02  -1.8748961e-02   7.5600429e-03   9.8595720e-02  -1.5347013e-02   6.9521934e-02  -4.5796901e-02   7.9221035e-02  -2.6620758e-02   1.8353168e-01  -6.2444458e-02   1.5733384e-01  -1.4460343e-01  -1.3114683e-01  -1.1736348e-02  -1.0522840e-01   4.3893577e-01  -1.2204141e-01   2.3106950e-01
   4.7682568e-03  -1.7816399e-03   2.1393238e-02  -8.0774683e-05  -6.3647182e-02  -6.0632013e-02   1.7617753e-02  -2.2019789e-02  -1.1445369e-01  -1.2852788e-01   8.2776771e-02  -4.1603384e-02  -2.8593822e-02  -1.1676463e-01   5.8597987e-02  -5.6266876e-02  -2.7051963e-02   1.6410391e-01   2.6514967e-01  -1.4816526e-01  -4.2903137e-01   8.3206527e-02  -6.4163375e-02
   2.1373478e-03  -8.9168792e-04   9.0369805e-04  -2.1131214e-02   1.5862968e-02  -5.2527180e-03   3.0169047e-02  -8.0518467e-02  -1.3875509e-02  -4.6513273e-02  -7.4139979e-02  -2.8046900e-02   1.9341119e-02  -4.7916920e-03  -9.9898462e-02  -4.9739685e-02  -5.1480139e-02   2.8444560e-04  -1.2996364e-01  -3.7687262e-03  -1.4115046e-01   7.4381118e-02  -4.8106145e-02
   3.1113338e-03  -6.1818995e-03  -5.4984844e-04   1.1179210e-02   6.5189625e-02   5.3914029e-02  -5.9699535e-02  -5.6927777e-03   9.9006796e-02   1.0041447e-01   1.1600520e-01   4.1052419e-02  -7.3242329e-02   1.1148957e-01  -1.6730069e-01   9.5943646e-02  -4.5956736e-02  -3.1051216e-02   9.2170449e-02  -2.4628911e-02  -4.5700253e-02   1.7346625e-01   2.4979732e-01
   4.6860355e-03  -4.1786936e-03   5.5679806e-02   3.0611395e-02  -8.2041466e-03   1.0493347e-01  -3.5840171e-02  -1.0453013e-01  -1.2863813e-01  -9.8508968e-02   1.0515849e-01  -3.9346295e-01  -9.3697596e-02  -1.9766913e-01  -1.2838101e-02   1.8632073e-01   1.3570354e-01  -2.8195931e-01   5.2343991e-01  -2.9851121e-01   8.9042945e-02  -1.4301957e-01  -1.2422220e-02
   7.2208192e-03   8.4618127e-03   9.6742557e-03   1.3072021e-02  -4.2809056e-02  -3.5747152e-02  -4.1824556e-02   9.7563620e-02   1.5628050e-03   7.4823450e-03   8.9162110e-02   2.9866866e-02   1.0023977e-01   3.8923134e-01  -4.3418626e-02   4.1086567e-01   1.3776530e-01  -2.9135143e-02   1.1781105e-01  -3.9818445e-02   1.4013448e-01  -1.1851906e-01   1.5173102e-01
  -7.0507909e-03  -6.0965721e-03  -1.3939249e-02   2.7632210e-02   3.1631590e-02   5.1550397e-02   9.8140161e-03  -4.8797389e-02  -3.5902089e-03   5.6232382e-03  -2.3959044e-01  -1.3282629e-01   1.8516478e-01  -1.8132712e-02   1.4926007e-02   1.6906095e-01  -1.4196555e-01   5.0611768e-01   1.4276364e-01  -3.1173004e-01   6.2440797e-01  -3.0933745e-01   3.6153590e-01
   5.5167926e-03  -8.2899300e-03   2.2615231e-02   1.0904841e-02  -2.0783632e-02  -3.4011015e-02   4.7429986e-02  -9.4713831e-03  -5.0080073e-02   5.9818370e-02   5.3788027e-02  -8.3089319e-02   1.0694393e-01  -2.8176139e-01   9.3641118e-03   5.1568822e-01  -1.2859820e-02  -1.5855042e-01   5.3170511e-02   1.3585638e-01  -5.5049109e-02  -3.8942429e-01  -9.2904645e-03
  -8.1700533e-03  -2.2953788e-02  -4.5661179e-03   5.0799119e-03   5.1457099e-02   5.9971005e-03   1.1527443e-01   4.3918021e-03  -2.3081869e-02   1.0250365e-01  -1.8074328e-01   5.1006971e-03   1.0591320e-01  -8.5904649e-02  -1.4448768e-01   2.8011390e-02  -8.3783563e-02  -8.1199490e-02  -5.8558292e-01  -3.3702281e-01   1.8038572e-01   1.0855506e-01  -3.3496485e-01
   4.1284438e-03   1.0151864e-03   5.9195988e-03   1.6294016e-02  -1.9034303e-02  -2.3589410e-02   8.6636965e-02  -3.6468161e-03  -2.2614746e-02   1.0647982e-01  -6.1753376e-03   1.0103827e-01   2.9155739e-02   4.0055001e-02  -3.4997176e-02   7.6320216e-02  -7.7699564e-02  -3.1570632e-01  -4.8710921e-01  -3.2858660e-01  -2.3105499e-01   3.9983241e-01   3.3482575e-01
  -5.3621720e-03   3.2741254e-03  -2.3405645e-02   1.9816872e-02   1.2253911e-02  -2.2368821e-02   1.6239851e-02   1.2765019e-01   7.0496478e-04   9.1553028e-02  -8.5552071e-02   1.0612514e-01  -2.3063238e-03   2.0675564e-01  -5.3997532e-02   1.8972323e-01  -1.2641142e-01  -1.5918429e-01  -3.4904982e-02  -8.8456911e-02   4.1678441e-01  -1.2519310e-01   2.4950430e-01
   5.6420905e-03  -4.1339085e-03   1.4697797e-02   1.3608060e-03  -4.6071567e-02  -5.2035306e-02   8.3528469e-03  -2.3408423e-02  -7.9442602e-02  -9.8022297e-02   1.0503655e-01  -4.2599133e-03  -4.8325973e-02  -1.6035821e-01  -1.0413797e-02  -3.4788680e-02  -6.6202581e-02   1.4607927e-01   2.8008027e-01  -9.1407791e-02  -5.3074319e-01   1.4900960e-01   8.9064703e-03
  -3.6865879e-04  -2.3536227e-04  -3.4920777e-03  -5.5572828e-03   6.8211676e-04  -7.1561870e-03   1.1399681e-02  -1.3395319e-02  -3.0016350e-03  -9.5056913e-03  -4.3895109e-02   3.9657650e-03  -1.4283983e-02  -3.2252167e-02   5.5719598e-03  -3.7660303e-02  -3.6188193e-02   2.9511924e-02  -5.2685487e-02   8.7996333e-03  -7.4042666e-02   1.5965899e-02  -5.4555196e-03
   3.6233404e-03  -3.2300064e-04  -8.6808768e-03   7.0832413e-03   5.3152217e-02   2.8463368e-02  -4.9735384e-02  -2.5323324e-02   1.1490806e-01   7.9214241e-02   6.6214290e-02   1.1198990e-01  -6.1094297e-02  -3.3327276e-02  -1.4532468e-01   2.1901816e-03  -1.2663552e-01   7.3060692e-02   3.3171746e-02   1.3134805e-01  -1.7335500e-01   1.2436345e-01   1.6570656e-01
   3.0319741e-03  -2.7056115e-03   5.3888748e-02   3.2149063e-02  -6.1936694e-03   1.1210890e-01  -3.6341913e-02  -7.8196981e-02  -1.2720000e-01  -1.0773770e-01   9.6765999e-02  -4.1507777e-01  -1.3894928e-01  -1.9091727e-01   1.3260899e-02   1.9861352e-01   1.5131995e-01  -2.7005974e-01   5.6446867e-01  -2.9456941e-01   1.2538285e-01  -1.3489911e-01  -6.9685884e-02
   8.2976360e-03   8.3815525e-03   7.8466295e-03   6.1105653e-03  -4.5990097e-02  -3.1817561e-02  -5.2806350e-02   9.8928703e-02   7.7413920e-03   4.7578865e-03   5.1128377e-02   8.0496142e-03   1.0263953e-01   3.9685054e-01  -5.1073648e-02   3.8337519e-01   1.6580748e-01  -1.3851458e-02   1.1670212e-01  -3.4097641e-02   1.1142442e-01  -7.3405854e-02   9.5720514e-02
  -6.3596146e-03  -4.6443965e-03  -1.6334186e-02   2.9943975e-02   2.9740966e-02   5.2213803e-02  -1.1884003e-03  -4.3472318e-02   1.3367012e-02  -4.4953570e-03  -2.2982545e-01  -1.5691472e-01   1.9082840e-01   5.9111062e-02   3.2637071e-02   6.7861146e-02  -1.0851289e-01   5.5319328e-01   1.8830030e-01  -3.4330603e-01   6.6590844e-01  -2.0043848e-01   3.3167988e-01
   6.1977985e-03  -6.1263383e-03   2.0624888e-02   1.4410379e-03  -3.4947905e-02  -3.0741034e-02   2.6918611e-02  -1.4565545e-02  -4.3643180e-02   6.7015526e-02   8.2832358e-02  -2.4222808e-02   5.8258773e-02  -3.0216940e-01   8.9911888e-03   4.0893419e-01   5.4098305e-02  -2.4551382e-01   2.7618027e-02   1.9943462e-01  -2.1517546e-01  -3.6675685e-01  -1.2179801e-01
  -7.6880681e-03  -2.1620679e-02  -5.6444614e-03   5.2983169e-03   4.4887695e-02   2.1384796e-03   1.0668705e-01   1.4621281e-02  -1.4378368e-02   8.5733984e-02  -1.5200451e-01   2.3295573e-03   9.4071300e-02  -5.3184400e-02  -1.1028548e-01   2.8043306e-02  -5.5432551e-02  -7.0185718e-02  -4.9318904e-01  -3.3093612e-01   1.8534693e-01   9.1800690e-02  -3.3043724e-01
   5.1184280e-03   3.0585229e-03   6.8309510e-03   1.0273721e-02  -2.0657909e-02  -2.6015399e-02   7.9213296e-02  -5.3954787e-03  -2.2278493e-02   1.0121555e-01  -9.6349760e-03   1.2511875e-01   1.9958113e-02   5.4833130e-02  -2.2990362e-02   4.0694899e-02  -4.7845982e-02  -3.2418949e-01  -4.6587540e-01  -3.1184691e-01  -3.0945046e-01   3.9260216e-01   2.8966864e-01
  -5.8720981e-03   2.1459323e-03  -2.9251578e-02   1.6022478e-02   1.4165021e-02  -2.1190596e-02   2.0802640e-02   1.4786002e-01   1.5369456e-02   1.0525261e-01  -1.1498347e-01   1.1287575e-01   9.8391342e-03   2.0987694e-01  -3.8610810e-02   2.0192951e-01  -9.9511486e-02  -1.8238843e-01  -3.9847774e-02  -7.6912941e-02   3.6707604e-01  -1.1812087e-01   2.3688490e-01
   6.0725999e-03  -5.5809001e-03   9.3395728e-03   3.0635717e-03  -3.3220397e-02  -4.7253505e-02   2.1206689e-03  -2.3510441e-02  -5.5173820e-02  -7.1880019e-02   1.1498021e-01   2.7988471e-02  -5.7861072e-02  -1.9272678e-01  -6.5368393e-02  -1.9226758e-02  -9.6096013e-02   1.2423150e-01   2.7647701e-01  -3.4965459e-02  -5.8582465e-01   1.9428920e-01   7.2695993e-02
  -2.9232620e-03   1.0349727e-04  -7.5773278e-03   7.9181897e-03  -1.2909214e-02  -6.3675347e-03  -5.7576684e-03   5.0493329e-02   8.3731695e-03   2.4579059e-02  -1.5201318e-02   2.7698580e-02  -4.5032909e-02  -5.2871025e-02   9.2990143e-02  -1.7611216e-02  -2.1370511e-02   3.9768506e-02   1.7866786e-02   1.0800265e-02  -1.0433466e-02  -3.3005104e-02   3.1397787e-02
   4.0357224e-03   4.5354184e-03  -1.5426545e-02   2.7432031e-03   4.2033828e-02   7.7771996e-03  -3.5403421e-02  -4.1349291e-02   1.2580394e-01   6.2092483e-02   2.0924886e-02   1.6693971e-01  -4.5114061e-02  -1.5321855e-01  -1.2850520e-01  -6.4357310e-02  -1.8626453e-01   1.4688228e-01  -3.2377321e-02   2.5526642e-01  -2.5072044e-01   8.2939324e-02   9.4446153e-02
   1.2979840e-03  -9.5065348e-04   5.2105097e-02   3.3848946e-02  -5.4259361e-03   1.1383916e-01  -3.3421197e-02  -5.9758224e-02  -1.2672564e-01  -1.1322057e-01   9.3789866e-02  -4.1734188e-01  -1.8391864e-01  -1.8490989e-01   4.8247642e-02   1.7212395e-01   1.4956761e-01  -2.3080018e-01   5.7541393e-01  -2.8012940e-01   1.5822521e-01  -1.1848486e-01  -1.1556404e-01
   8.7881146e-03   9.0226702e-03   9.1250778e-03  -4.5272989e-04  -5.0095601e-02  -3.3586144e-02  -6.3573892e-02   9.2605332e-02   1.1993823e-02  -1.0838694e-02   3.2025302e-02   5.8285743e-03   1.2172607e-01   4.0311167e-01  -8.2992727e-02   3.6045740e-01   1.6874949e-01  -6.1867522e-03   1.2275158e-01  -2.3717440e-02   7.0368580e-02  -5.1877417e-02   3.6843838e-02
  -5.6358468e-03  -3.2994299e-03  -1.7776689e-02   2.8621895e-02   2.9526038e-02   5.1850975e-02  -5.7236416e-03  -3.6024956e-02   2.1111256e-02  -9.3831948e-03  -2.0620877e-01  -1.6525252e-01   1.8608057e-01   1.1046426e-01   4.1035408e-02  -1.6857882e-02  -8.2503901e-02   5.5219230e-01   2.1045269e-01  -3.5254089e-01   6.6735893e-01  -9.0590255e-02   2.9023570e-01
   6.5695811e-03  -1.7155242e-03   1.8617303e-02  -7.0226760e-03  -4.0835082e-02  -2.8181649e-02   1.4660326e-02  -1.5380341e-02  -3.8709750e-02   7.3051237e-02   9.5130272e-02   3.4127471e-02   1.4657462e-02  -3.0153413e-01   1.5054936e-02   2.7990404e-01   9.6306789e-02  -3.0268677e-01  -8.2135817e-03   2.3209430e-01  -3.4490880e-01  -3.2864699e-01  -2.1231862e-01
  -5.6474728e-03  -1.7073538e-02  -5.5277894e-03   7.6863095e-03   3.3776506e-02   2.4485496e-04   8.7850901e-02   2.1907343e-02  -5.8769877e-03   5.7372745e-02  -1.1097104e-01   3.5520627e-04   7.5923114e-02  -1.5542080e-02  -6.3773149e-02   3.0372257e-02  -2.7484135e-02  -3.3837178e-02  -3.5646093e-01  -3.0004997e-01   1.7627932e-01   6.2140841e-02  -2.9688209e-01
   5.2520722e-03   5.2812788e-03   5.8309601e-03   3.4943467e-03  -2.2256474e-02  -2.4308984e-02   6.2850102e-02  -7.6036025e-03  -1.6743256e-02   8.8138101e-02  -1.4341008e-02   1.3036363e-01   1.2552459e-02   4.1808064e-02  -1.3474430e-02   1.3236627e-02  -1.7875348e-02  -3.2033741e-01  -4.1419759e-01  -2.6782507e-01  -3.4383247e-01   3.3883986e-01   2.3129719e-01
  -6.5170275e-03   8.8796435e-04  -3.2873763e-02   1.1753927e-02   1.6335143e-02  -1.7751290e-02   2.2659247e-02   1.5923234e-01   2.8524496e-02   1.1168284e-01  -1.3542733e-01   1.0785593e-01   1.0851331e-02   1.9468497e-01  -1.5716633e-02   1.9126210e-01  -6.9673785e-02  -1.9386841e-01  -3.5756582e-02  -6.4839699e-02   2.9434776e-01  -1.0270340e-01   2.0152368e-01
   6.1819271e-03  -6.1407533e-03   5.2808859e-03   4.9104545e-03  -2.4247879e-02  -4.5214594e-02  -1.7055506e-03  -2.2925710e-02  -3.9174720e-02  -4.9874416e-02   1.1441247e-01   5.5671794e-02  -5.9791685e-02  -2.1722480e-01  -1.0760719e-01  -9.6767303e-03  -1.1779958e-01   1.0041003e-01   2.5732157e-01   1.9565116e-02  -6.0344136e-01   2.2285041e-01   1.2322102e-01
  -5.1046463e-03   1.7231000e-04  -1.0797662e-02   1.7015326e-02  -2.2702939e-02  -3.3052089e-03  -1.8021046e-02   1.0018809e-01   1.8428560e-02   5.0286186e-02   7.3803574e-03   4.0266586e-02  -6.8411444e-02  -6.5311790e-02   1.5084556e-01   3.2400680e-03  -9.3418898e-03   3.3517705e-02   6.9948295e-02   3.5730484e-03   3.8222346e-02  -6.5564506e-02   5.5900172e-02
   4.2555613e-03   7.4957461e-03  -1.9862842e-02  -1.2376321e-03   3.3833266e-02  -3.8989552e-03  -1.9652695e-02  -5.0885764e-02   1.3238184e-01   5.2539374e-02  -1.0946840e-02   1.9928144e-01  -2.9009216e-02  -2.2852887e-01  -1.1994001e-01  -9.4758296e-02  -2.1386290e-01   1.7740359e-01  -9.3878872e-02   3.2948805e-01  -2.6708609e-01   5.8332923e-02   4.5322491e-02
  -3.5865073e-04   1.2187002e-03   5.0065457e-02   3.5784972e-02  -5.4621596e-03   1.1070045e-01  -2.8234907e-02  -4.6590177e-02  -1.2731054e-01  -1.1397419e-01   9.1180878e-02  -4.0325390e-01  -2.2510281e-01  -1.7578991e-01   8.6783809e-02   1.2192347e-01   1.3432750e-01  -1.7868158e-01   5.6206911e-01  -2.5942978e-01   1.9146822e-01  -9.9358505e-02  -1.4798120e-01
   8.6983224e-03   9.9977982e-03   1.2668527e-02  -6.6384642e-03  -5.5100961e-02  -3.8918507e-02  -7.2618822e-02   8.1225049e-02   1.4955988e-02  -3.4934965e-02   3.0594797e-02   1.8466822e-02   1.5012979e-01   4.0883997e-01  -1.3218419e-01   3.3768751e-01   1.5706680e-01  -7.7817242e-03   1.3336479e-01  -1.0629578e-02   2.4230093e-02  -4.5631383e-02  -2.0612376e-02
  -5.0930689e-03  -3.7352327e-03  -1.8360336e-02   2.5329440e-02   3.0014832e-02   5.1087694e-02  -4.6785035e-03  -2.9714317e-02   2.2391145e-02  -1.1668805e-02  -1.6943299e-01  -1.6700196e-01   1.7476924e-01   1.3703577e-01   3.9764084e-02  -7.0944305e-02  -6.1273740e-02   5.2126987e-01   2.2027300e-01  -3.3609331e-01   6.4232396e-01   1.4333339e-02   2.5224174e-01
   6.4365428e-03   2.3320775e-03   1.6718507e-02  -1.3351563e-02  -3.9954028e-02  -2.5724333e-02   9.6941466e-03  -1.5839062e-02  -3.4963481e-02   7.6907274e-02   9.6777720e-02   8.1544808e-02  -2.0224591e-02  -2.8997779e-01   2.2260467e-02   1.5862953e-01   1.1796469e-01  -3.2719021e-01  -4.3237855e-02   2.4747596e-01  -4.3594807e-01  -2.8642144e-01  -2.7315574e-01
  -2.7618347e-03  -1.1077388e-02  -4.5703896e-03   1.1317270e-02   2.0210514e-02  -1.6543317e-04   6.3352955e-02   2.5526922e-02   1.9838201e-03   2.2635883e-02  -6.4423763e-02  -2.1192022e-03   5.6560835e-02   2.2652479e-02  -1.4474578e-02   3.7544089e-02  -3.6891754e-03   1.9457997e-02  -2.0323103e-01  -2.5366208e-01   1.5832022e-01   2.4985739e-02  -2.4692737e-01
   4.6091668e-03   6.4674741e-03   3.6394551e-03  -2.8365724e-03  -2.3303122e-02  -1.9134001e-02   4.1963005e-02  -1.0896355e-02  -7.5910395e-03   7.0249982e-02  -1.7388769e-02   1.1835881e-01   7.0085153e-03   9.5917813e-03  -8.0610852e-03   1.9922135e-03   1.1150078e-02  -3.0429939e-01  -3.4499453e-01  -2.0759321e-01  -3.4283275e-01   2.5897942e-01   1.7363897e-01
  -7.1888700e-03  -1.4626279e-04  -3.4823255e-02   7.3431094e-03   1.8052327e-02  -1.4200654e-02   2.2978809e-02   1.6247235e-01   3.9839802e-02   1.1225161e-01  -1.4937531e-01   9.8031242e-02   3.0666799e-03   1.6449512e-01   1.3725055e-02   1.5925073e-01  -4.1808951e-02  -1.9080049e-01  -3.0361243e-02  -4.8905966e-02   2.0489553e-01  -8.1718554e-02   1.5203162e-01
   6.0815760e-03  -5.8810260e-03   2.4370992e-03   6.7624954e-03  -1.8277775e-02  -4.4932517e-02  -3.6509607e-03  -2.2292150e-02  -2.9170799e-02  -3.1791929e-02   1.0530996e-01   7.9102248e-02  -5.6636458e-02  -2.3700882e-01  -1.3863934e-01  -5.9077314e-03  -1.3248961e-01   7.6586891e-02   2.2574216e-01   7.0948575e-02  -5.9240217e-01   2.3823154e-01   1.5767861e-01
  -6.6563125e-03   7.0191115e-05  -1.2833645e-02   2.0966832e-02  -2.7706658e-02   1.2458424e-03  -2.4100767e-02   1.3040125e-01   2.5863660e-02   6.5377161e-02   2.1437296e-02   4.1481303e-02  -8.2601638e-02  -6.9516469e-02   1.7683127e-01   1.9599172e-02  -9.8841994e-04   1.5684530e-02   9.9226544e-02  -1.0643332e-02   6.6387207e-02  -7.9975513e-02   6.5612533e-02
   4.2758436e-03   8.2686482e-03  -2.1673371e-02  -4.5700926e-03   2.9431942e-02  -5.0256657e-03  -4.9081085e-03  -5.3219866e-02   1.3598739e-01   5.1272755e-02  -2.5295233e-02   2.0809940e-01  -1.5652479e-02  -2.5248365e-01  -1.1967479e-01  -8.9881237e-02  -2.0670939e-01   1.6315786e-01  -1.4316487e-01   3.4961966e-01  -2.2760355e-01   5.4177676e-02   1.9881799e-02
  -1.8414279e-03   3.8003724e-03   4.7620142e-02   3.7974431e-02  -5.7382719e-03   1.0370651e-01  -2.1935121e-02  -3.6493857e-02  -1.2890261e-01  -1.0948507e-01   8.5241137e-02  -3.7688017e-01  -2.6009608e-01  -1.6137556e-01   1.2410962e-01   6.1010937e-02   1.0939321e-01  -1.2567999e-01   5.3050070e-01  -2.3678150e-01   2.2779814e-01  -8.1376240e-02  -1.6622439e-01
   8.0968857e-03   1.1043411e-02   1.7595156e-02  -1.2392170e-02  -6.0820704e-02  -4.6076776e-02  -7.8804690e-02   6.7238179e-02   1.7172906e-02  -6.3410242e-02   4.4290957e-02   4.1644012e-02   1.8151777e-01   4.1437368e-01  -1.9117457e-01   3.1229665e-01   1.3927391e-01  -1.9003479e-02   1.4559504e-01   3.5967517e-03  -2.1248349e-02  -4.7168784e-02  -7.3014728e-02
  -4.8186078e-03  -6.7524011e-03  -1.8173438e-02   2.0886331e-02   2.9755533e-02   5.0157264e-02  -5.4867529e-04  -2.6089884e-02   2.0803329e-02  -1.4467177e-02  -1.1975999e-01  -1.6771926e-01   1.5783822e-01   1.4507125e-01   2.9711495e-02  -9.1472536e-02  -3.9158689e-02   4.7414752e-01   2.2672545e-01  -2.9119619e-01   5.9738919e-01   1.1345733e-01   2.2398306e-01
   5.6946518e-03   4.1128604e-03   1.5047563e-02  -1.7353965e-02  -3.4631397e-02  -2.2965953e-02   9.1601555e-03  -1.8147770e-02  -3.0426953e-02   7.6188398e-02   9.5374086e-02   1.1097987e-01  -4.6581392e-02  -2.7057775e-01   2.6408233e-02   6.2621272e-02   1.2828063e-01  -3.1936886e-01  -6.6959710e-02   2.5970477e-01  -4.8855638e-01  -2.4383661e-01  -3.0385357e-01
   3.7186248e-04  -4.9999561e-03  -3.0855811e-03   1.5278676e-02   5.8859049e-03   4.8043091e-04   3.6786216e-02   2.5446915e-02   9.1587486e-03  -1.4120935e-02  -1.7412864e-02  -5.6693760e-03   3.8808897e-02   5.8924001e-02   2.9949920e-02   4.9486964e-02   1.4665717e-02   8.0658032e-02  -5.5420314e-02  -1.9897043e-01   1.3489796e-01  -1.3208652e-02  -1.9144619e-01
   3.3302995e-03   5.9004259e-03   9.0865440e-04  -8.1075429e-03  -2.3808580e-02  -1.1423347e-02   1.9548547e-02  -1.5419016e-02   4.3169836e-03   4.9420077e-02  -1.5866333e-02   9.2301292e-02   1.9544675e-03  -3.1055846e-02  -7.5019283e-03   8.5412274e-03   4.0305761e-02  -2.7705607e-01  -2.6783306e-01  -1.3893718e-01  -3.1759289e-01   1.7236148e-01   1.2470814e-01
  -7.7741595e-03  -6.7999581e-04  -3.5599716e-02   3.1300994e-03   1.8934028e-02  -1.2106580e-02   2.2637065e-02   1.5877662e-01   4.8860323e-02   1.0855346e-01  -1.5976822e-01   8.8465127e-02  -1.0393660e-02   1.2367862e-01   4.7491909e-02   1.1063851e-01  -1.9650416e-02  -1.7355618e-01  -2.9403537e-02  -2.8014151e-02   1.0629165e-01  -5.8191842e-02   9.6737366e-02
   5.8623926e-03  -4.9206975e-03   7.0172523e-04   8.4840005e-03  -1.4439815e-02  -4.5489971e-02  -4.1782964e-03  -2.2142372e-02  -2.3180190e-02  -1.7328182e-02   8.9868536e-02   9.8310327e-02  -5.0784786e-02  -2.5446783e-01  -1.6010168e-01  -7.2139628e-03  -1.4118026e-01   5.4403618e-02   1.8492475e-01   1.1791684e-01  -5.6043124e-01   2.4369780e-01   1.7483068e-01
  -7.4705287e-03  -1.1024276e-04  -1.3573802e-02   2.0227256e-02  -2.7957832e-02   6.3242265e-03  -2.4356894e-02   1.4062742e-01   2.9844128e-02   7.0155859e-02   2.6358560e-02   3.3194393e-02  -8.7876258e-02  -6.6298799e-02   1.7509693e-01   2.8820394e-02   3.6812393e-03  -7.9237757e-03   1.0711569e-01  -2.9025156e-02   7.3625038e-02  -7.8396270e-02   6.1718402e-02
   4.1596022e-03   7.1106909e-03  -2.1068437e-02  -7.1908697e-03   2.8798932e-02   3.4892026e-03   7.0648945e-03  -4.9391148e-02   1.3810181e-01   5.6903418e-02  -2.2653991e-02   1.9690326e-01  -6.5793784e-03  -2.2871487e-01  -1.2533380e-01  -5.7469512e-02  -1.6938998e-01   1.1204329e-01  -1.7529659e-01   3.2170219e-01  -1.4829140e-01   6.8777619e-02   1.4328110e-02
  -3.1157625e-03   6.6687985e-03   4.4719934e-02   4.0375730e-02  -5.6855274e-03   9.4117722e-02  -1.5607750e-02  -2.7801603e-02  -1.3128774e-01  -9.9771069e-02   7.3784680e-02  -3.4286819e-01  -2.8770794e-01  -1.4098838e-01   1.5646134e-01  -3.1484938e-04   7.8399299e-02  -8.0518453e-02   4.8679046e-01  -2.1586517e-01   2.6846959e-01  -6.6764326e-02  -1.7089099e-01
   7.1050656e-03   1.2025434e-02   2.3038632e-02  -1.7594973e-02  -6.6938262e-02  -5.3837429e-02  -8.1412174e-02   5.2680451e-02   1.8999227e-02  -9.2662610e-02   6.9373183e-02   7.1611852e-02   2.1107737e-01   4.1944926e-01  -2.5262810e-01   2.8310431e-01   1.2137756e-01  -3.8750003e-02   1.5622730e-01   1.7972889e-02  -6.2019297e-02  -5.0408115e-02  -1.1745156e-01
  -4.7503998e-03  -1.2040520e-02  -1.7313424e-02   1.5568692e-02   2.7451136e-02   4.8824369e-02   3.6792064e-03  -2.4902305e-02   1.9500257e-02  -1.9945614e-02  -5.9336277e-02  -1.6872104e-01   1.3475394e-01   1.4236206e-01   1.3463490e-02  -8.5193722e-02  -1.1335290e-02   4.1937942e-01   2.3412043e-01  -2.1937873e-01   5.3499656e-01   2.0730657e-01   2.0453887e-01
   4.3910964e-03   2.8968031e-03   1.3693570e-02  -1.9485345e-02  -2.7336396e-02  -1.9908642e-02   9.4171806e-03  -2.2467329e-02  -2.2836081e-02   6.8794006e-02   9.6925550e-02   1.2021215e-01  -6.7099692e-02  -2.4279703e-01   2.5412242e-02  -3.2977176e-03   1.3700027e-01  -2.8364229e-01  -7.3031799e-02   2.7860302e-01  -5.0888399e-01  -2.0061957e-01  -3.1026164e-01
   3.3063656e-03   3.0642859e-04  -1.3495662e-03   1.8803125e-02  -7.7949723e-03   1.7651752e-03   1.0932228e-02   2.2340610e-02   1.5673550e-02  -4.9147950e-02   2.6047319e-02  -9.9158779e-03   2.3789887e-02   9.1735165e-02   6.4197507e-02   6.3919841e-02   2.7572116e-02   1.4057223e-01   7.0632988e-02  -1.4196477e-01   1.0826926e-01  -4.6322228e-02  -1.3907581e-01
   1.6244321e-03   3.5261727e-03  -1.8406349e-03  -1.2148001e-02  -2.3991951e-02  -2.3802920e-03  -2.4050688e-03  -2.0720071e-02   1.8245390e-02   2.7138887e-02  -8.1750185e-03   5.7113190e-02  -4.5564926e-03  -6.9567625e-02  -1.1336700e-02   2.8695889e-02   7.0798666e-02  -2.4086331e-01  -1.9024998e-01  -6.8235117e-02  -2.7975745e-01   9.4720073e-02   8.7180372e-02
  -8.1808410e-03  -5.7421957e-04  -3.5618328e-02  -5.7616504e-04   1.8890904e-02  -1.2355603e-02   2.2179641e-02   1.4963641e-01   5.5127010e-02   1.0217941e-01  -1.6931011e-01   8.2099082e-02  -2.6186805e-02   7.7215972e-02   8.2512617e-02   5.2200085e-02  -5.4780440e-03  -1.4468180e-01  -3.6277470e-02  -2.8369091e-03   6.6846670e-03  -3.4848798e-02   4.3099729e-02
   5.5888240e-03  -3.4240004e-03  -3.6786635e-05   9.9608023e-03  -1.1915212e-02  -4.6038302e-02  -3.7116522e-03  -2.2819441e-02  -1.9565311e-02  -6.0340828e-03   7.0481200e-02   1.1309614e-01  -4.4433944e-02  -2.7093005e-01  -1.7373812e-01  -1.2411583e-02  -1.4461104e-01   3.4877560e-02   1.3798033e-01   1.5898162e-01  -5.1377418e-01   2.4222704e-01   1.7516856e-01
  -7.5605898e-03  -3.2611895e-04  -1.3077376e-02   1.6071581e-02  -2.4259184e-02   1.0996209e-02  -2.0304945e-02   1.3383272e-01   2.9973848e-02   6.6600274e-02   2.2948702e-02   1.8524667e-02  -8.5918623e-02  -5.7019751e-02   1.5334046e-01   3.0936000e-02   5.0830514e-03  -3.1861568e-02   9.8782972e-02  -4.8408590e-02   6.3300038e-02  -6.5288840e-02   4.8066061e-02
   4.0113395e-03   4.6829205e-03  -1.8647159e-02  -9.1630480e-03   3.1258062e-02   1.8855248e-02   1.5174341e-02  -4.1588316e-02   1.3990363e-01   6.6715615e-02  -7.3169051e-03   1.7197959e-01  -1.8362760e-03  -1.6804478e-01  -1.3304266e-01  -8.8935011e-03  -1.1194125e-01   3.8318544e-02  -1.8871880e-01   2.5877683e-01  -5.0511085e-02   9.6046259e-02   2.2082194e-02
  -4.2004193e-03   9.6139124e-03   4.1398691e-02   4.2891107e-02  -4.8280028e-03   8.3234645e-02  -1.0204625e-02  -1.9402475e-02  -1.3410685e-01  -8.5380189e-02   5.6072724e-02  -3.0588827e-01  -3.0792734e-01  -1.1519677e-01   1.8134223e-01  -5.4737686e-02   4.4705841e-02  -4.8448042e-02   4.3666184e-01  -1.9926829e-01   3.1319704e-01  -5.6378951e-02  -1.6374429e-01
   5.8804114e-03   1.2920463e-02   2.8203395e-02  -2.2080332e-02  -7.3055610e-02  -6.1518397e-02  -8.0162343e-02   3.9019138e-02   2.0543642e-02  -1.1979583e-01   1.0117690e-01   1.0523248e-01   2.3577448e-01   4.2325010e-01  -3.0990296e-01   2.5028197e-01   1.0671635e-01  -6.4430229e-02   1.6200750e-01   3.2179785e-02  -9.5665525e-02  -5.1031146e-02  -1.5173158e-01
  -4.7018182e-03  -1.8294417e-02  -1.5893701e-02   9.4615790e-03   2.2456625e-02   4.6506134e-02   5.5941739e-03  -2.4558230e-02   2.0205968e-02  -2.8371474e-02   6.5827116e-03  -1.6774009e-01   1.0512673e-01   1.3510521e-01  -4.8997322e-03  -6.4905488e-02   2.3383432e-02   3.6085138e-01   2.4131391e-01  -1.2831546e-01   4.5660911e-01   2.9486809e-01   1.8870755e-01
   2.7315625e-03  -7.7690781e-04   1.2697932e-02  -2.0453119e-02  -2.0054207e-02  -1.6938162e-02   7.2543521e-03  -2.7207934e-02  -1.0897173e-02   5.4271655e-02   1.0364803e-01   1.1187593e-01  -8.5132944e-02  -2.0597450e-01   1.9592474e-02  -4.4404605e-02   1.5051467e-01  -2.2809036e-01  -6.1160625e-02   3.0651327e-01  -5.0535657e-01  -1.5596646e-01  -3.0198841e-01
   5.7521267e-03   4.5015603e-03   3.9361080e-04   2.1380972e-02  -1.9644932e-02   3.2809648e-03  -1.2025274e-02   1.7426595e-02   2.1378082e-02  -7.9124308e-02   6.2499700e-02  -1.3657771e-02   1.1623795e-02   1.1963938e-01   8.5470458e-02   7.7318804e-02   3.5313116e-02   1.9058809e-01   1.6383456e-01  -8.7993603e-02   8.0179296e-02  -6.9725874e-02  -9.5707008e-02
  -2.4769472e-04  -7.5214661e-05  -4.2588968e-03  -1.5026494e-02  -2.3993146e-02   6.6345076e-03  -2.2441563e-02  -2.5893131e-02   3.3096635e-02   5.1077138e-03   5.1866190e-03   1.8935673e-02  -1.4084130e-02  -9.7646844e-02  -1.7925334e-02   5.4422935e-02   1.0237350e-01  -1.9911642e-01  -1.1858347e-01  -1.7698829e-03  -2.3938654e-01   3.6337384e-02   5.9899703e-02
  -8.3575070e-03   1.4718305e-04  -3.5193694e-02  -3.5398496e-03   1.8061013e-02  -1.5156748e-02   2.1816436e-02   1.3666814e-01   5.8304002e-02   9.4531289e-02  -1.7992533e-01   7.9825886e-02  -4.1273077e-02   3.0255347e-02   1.1536742e-01  -8.4887260e-03   2.5369954e-05  -1.0788989e-01  -5.1946709e-02   2.4779100e-02  -8.6040331e-02  -1.3747027e-02  -2.8310855e-03
   5.2981027e-03  -1.5880107e-03   1.1376903e-04   1.1109868e-02  -9.9846516e-03  -4.5819460e-02  -2.6444334e-03  -2.4451061e-02  -1.7042602e-02   2.6851380e-03   4.9644496e-02   1.2315936e-01  -3.9511301e-02  -2.8662269e-01  -1.8138062e-01  -1.9958056e-02  -1.4325268e-01   1.8267215e-02   8.7810814e-02   1.9244150e-01  -4.5714291e-01   2.3649077e-01   1.6084183e-01
  -7.0280536e-03  -6.0114126e-04  -1.1534704e-02   1.0155917e-02  -1.7883425e-02   1.4529680e-02  -1.4058108e-02   1.1501447e-01   2.6296968e-02   5.7485154e-02   1.3016842e-02   1.0713129e-03  -7.9139560e-02  -4.3359484e-02   1.2025248e-01   2.8039590e-02   3.7969766e-03  -5.1890847e-02   8.1189818e-02  -6.5559290e-02   4.1020673e-02  -4.5871343e-02   2.9879222e-02
   3.9417860e-03   1.8570500e-03  -1.5226918e-02  -1.0587593e-02   3.5767966e-02   3.7174300e-02   1.8936615e-02  -3.2483966e-02   1.4198878e-01   7.7445520e-02   1.4073861e-02   1.4067299e-01  -1.6528503e-04  -8.5076708e-02  -1.3850791e-01   4.3905074e-02  -4.7415556e-02  -4.0777940e-02  -1.8488226e-01   1.7734617e-01   4.4263620e-02   1.2706965e-01   3.6091410e-02
  -5.1514347e-03   1.2397172e-02   3.7754165e-02   4.5377749e-02  -2.8483243e-03   7.2208400e-02  -6.4642890e-03  -1.0711595e-02  -1.3690970e-01  -6.7317055e-02   3.2544457e-02  -2.7008074e-01  -3.2173653e-01  -8.5547625e-02   1.9762760e-01  -9.7883421e-02   1.1226443e-02  -3.1480411e-02   3.8502573e-01  -1.8829868e-01   3.6020519e-01  -5.0081874e-02  -1.4746074e-01
   4.5960054e-03   1.3779455e-02   3.2415079e-02  -2.5656637e-02  -7.8755079e-02  -6.8921970e-02  -7.5216208e-02   2.7098748e-02   2.1664183e-02  -1.4272384e-01   1.3454674e-01   1.3993160e-01   2.5436122e-01   4.2460905e-01  -3.5750658e-01   2.1501229e-01   9.6172114e-02  -9.2150250e-02   1.5999239e-01   4.6549554e-02  -1.2114448e-01  -4.6566695e-02  -1.7435434e-01
  -4.4275000e-03  -2.3642862e-02  -1.4041262e-02   2.7553334e-03   1.5008333e-02   4.2531017e-02   4.0896126e-03  -2.2949358e-02   2.2810723e-02  -3.7919942e-02   6.9848701e-02  -1.6059608e-01   7.0001468e-02   1.2603746e-01  -2.0598148e-02  -4.4766834e-02   6.1531005e-02   2.9925515e-01   2.4280631e-01  -3.1259834e-02   3.6523346e-01   3.7208837e-01   1.7039924e-01
   1.0335760e-03  -5.3917155e-03   1.2046224e-02  -2.0841191e-02  -1.3878873e-02  -1.4617021e-02   8.5756118e-04  -2.9835334e-02   4.9441068e-03   3.4440045e-02   1.1328903e-01   9.2136499e-02  -1.0296677e-01  -1.6184811e-01   1.1195843e-02  -7.1543843e-02   1.6960668e-01  -1.6290093e-01  -3.6900667e-02   3.3767815e-01  -4.8523814e-01  -1.1099435e-01  -2.8904454e-01
   7.5621005e-03   7.6449752e-03   1.9295487e-03   2.2824315e-02  -2.8666162e-02   4.6635209e-03  -3.0340818e-02   1.2177851e-02   2.5848659e-02  -1.0114449e-01   8.8907680e-02  -1.5300422e-02   2.0744614e-03   1.4080024e-01   9.3280973e-02   8.6149564e-02   3.7905767e-02   2.2351871e-01   2.1807202e-01  -4.1835256e-02   5.2392591e-02  -8.0965441e-02  -6.4150616e-02
  -2.0113253e-03  -3.8989169e-03  -6.1788073e-03  -1.6862904e-02  -2.3706027e-02   1.4301772e-02  -3.9258167e-02  -2.9914213e-02   4.7187230e-02  -1.4521358e-02   2.1598325e-02  -1.5872261e-02  -2.7032765e-02  -1.1059395e-01  -2.4854669e-02   7.6479699e-02   1.3257268e-01  -1.5572387e-01  -5.8133015e-02   5.3921611e-02  -2.0331879e-01   1.2933532e-03   3.9839670e-02
  -8.3022768e-03   1.3124856e-03  -3.4539100e-02  -5.6340900e-03   1.6733192e-02  -2.0138554e-02   2.1460354e-02   1.2147381e-01   5.8279118e-02   8.6677514e-02  -1.9244935e-01   8.0832731e-02  -5.3324593e-02  -1.2343768e-02   1.4280413e-01  -6.4200965e-02  -2.2868151e-03  -6.7185234e-02  -7.5196265e-02   5.2408117e-02  -1.6511825e-01   3.8712980e-03  -3.6827664e-02
   5.0040393e-03   3.7404665e-04   1.0516062e-03   1.1880557e-02  -8.0716054e-03  -4.4208523e-02  -1.3361250e-03  -2.6971061e-02  -1.4658559e-02   9.5245753e-03   2.9804403e-02   1.2826336e-01  -3.7587604e-02  -3.0082786e-01  -1.8491339e-01  -2.8156528e-02  -1.3738615e-01   4.0826088e-03   3.7008005e-02   2.1654392e-01  -3.9394473e-01   2.2882911e-01   1.3537026e-01
  -6.0307438e-03  -1.0121006e-03  -9.2310175e-03   4.1105687e-03  -1.0287702e-02   1.6509920e-02  -7.7879498e-03   8.9874677e-02   1.9311738e-02   4.5644259e-02  -1.0366075e-03  -1.5785496e-02  -7.0076795e-02  -2.7175911e-02   8.3647466e-02   2.3264870e-02   4.8093209e-04  -6.5409813e-02   6.1413436e-02  -7.7517290e-02   1.3105770e-02  -2.4875565e-02   1.2372362e-02
   4.0339001e-03  -4.9488812e-04  -1.1667105e-02  -1.1544263e-02   4.1173904e-02   5.4292661e-02   1.8377442e-02  -2.4605607e-02   1.4429749e-01   8.5964915e-02   3.4203861e-02   1.0986449e-01   5.5931678e-04   4.9227301e-03  -1.3805726e-01   9.0839643e-02   1.0800539e-02  -1.0837587e-01  -1.6746452e-01   9.4145053e-02   1.1862828e-01   1.5206496e-01   5.0530815e-02
  -6.0420618e-03   1.4809609e-02   3.3928673e-02   4.7668569e-02   3.7891179e-04   6.1895935e-02  -4.8275104e-03  -1.6070489e-03  -1.3923650e-01  -4.6903059e-02   4.4063385e-03  -2.3859101e-01  -3.3080259e-01  -5.4319185e-02   2.0550983e-01  -1.2800163e-01  -1.9771665e-02  -2.8963234e-02   3.3553095e-01  -1.8305228e-01   4.0645913e-01  -4.7161855e-02  -1.2527279e-01
   3.4182302e-03   1.4683968e-02   3.5162170e-02  -2.8134908e-02  -8.3661990e-02  -7.6212901e-02  -6.7144665e-02   1.7190689e-02   2.2013588e-02  -1.6019547e-01   1.6438206e-01   1.7360829e-01   2.6714795e-01   4.2231309e-01  -3.9142066e-01   1.7910674e-01   8.8690917e-02  -1.1711841e-01   1.4795926e-01   6.1941464e-02  -1.3842215e-01  -3.6251314e-02  -1.8449573e-01
  -3.7100418e-03  -2.6252801e-02  -1.1886181e-02  -4.0968926e-03   6.1404952e-03   3.6434966e-02  -4.1882888e-04  -1.8377578e-02   2.5629812e-02  -4.5271400e-02   1.2096325e-01  -1.4331746e-01   3.2418063e-02   1.1422703e-01  -2.9283034e-02  -3.5847601e-02   9.5922789e-02   2.3401779e-01   2.3129740e-01   5.5713206e-02   2.6658721e-01   4.3209842e-01   1.4551208e-01
  -3.5883975e-04  -9.0315825e-03   1.1671178e-02  -2.0860281e-02  -8.9237265e-03  -1.3388625e-02  -9.7245245e-03  -2.7922799e-02   2.2430661e-02   1.3112600e-02   1.2010220e-01   6.8489862e-02  -1.2070047e-01  -1.1545295e-01   3.3420801e-03  -9.5963482e-02   1.8937539e-01  -9.8155701e-02  -9.5194035e-03   3.6032078e-01  -4.5236166e-01  -6.9548448e-02  -2.7870259e-01
   8.7003233e-03   1.0015393e-02   3.0759296e-03   2.3262812e-02  -3.4088189e-02   5.6385650e-03  -4.2654521e-02   7.9827796e-03   2.8462092e-02  -1.1288528e-01   1.0285465e-01  -1.3420806e-02  -5.0027435e-03   1.5299761e-01   8.8989284e-02   8.8004225e-02   3.5051647e-02   2.3440237e-01   2.3199057e-01  -7.3085997e-03   2.6902426e-02  -7.9872695e-02  -4.4183421e-02
  -3.4263598e-03  -6.8401158e-03  -7.5972320e-03  -1.7705037e-02  -2.2769307e-02   1.9569907e-02  -5.1538985e-02  -3.2042855e-02   5.8357738e-02  -2.9311068e-02   3.7033808e-02  -4.1948515e-02  -4.2298587e-02  -1.0762038e-01  -2.9590072e-02   8.7073340e-02   1.5702643e-01  -1.1423983e-01  -1.2733600e-02   9.2675814e-02  -1.7440657e-01  -1.2036514e-02   2.3957911e-02
  -8.0607978e-03   2.6511945e-03  -3.3777708e-02  -6.8617696e-03   1.5274452e-02  -2.6513823e-02   2.0814458e-02   1.0552599e-01   5.5212641e-02   7.9278350e-02  -2.0659160e-01   8.3142991e-02  -6.0961502e-02  -4.6480739e-02   1.6219975e-01  -1.0900936e-01  -1.0313464e-02  -2.6199359e-02  -1.0319750e-01   7.7538689e-02  -2.2563865e-01   1.7512352e-02  -5.6700793e-02
   4.7042073e-03   2.2519702e-03   2.6785639e-03   1.2249928e-02  -5.7740844e-03  -4.0767367e-02  -1.0547999e-04  -3.0173361e-02  -1.1747474e-02   1.5202095e-02   1.3165061e-02   1.2839112e-01  -3.9799276e-02  -3.1216007e-01  -1.8621258e-01  -3.5395374e-02  -1.2722596e-01  -8.7760961e-03  -1.2202354e-02   2.2974731e-01  -3.2668336e-01   2.2121196e-01   1.0319981e-01
  -4.7556977e-03  -1.6498690e-03  -6.5167277e-03  -7.7737296e-04  -2.8670204e-03   1.6887042e-02  -3.2699058e-03   6.3765781e-02   9.9624086e-03   3.3462442e-02  -1.6606436e-02  -2.9412820e-02  -6.0941317e-02  -1.0423239e-02   4.9404280e-02   1.9671929e-02  -4.1388350e-03  -7.1482735e-02   4.5367813e-02  -8.2005326e-02  -1.4665437e-02  -5.7842468e-03  -4.4021459e-04
   4.3176278e-03  -1.6891643e-03  -8.7123922e-03  -1.2071010e-02   4.6404796e-02   6.6596917e-02   1.3936500e-02  -1.9824821e-02   1.4624528e-01   8.9808062e-02   4.6724359e-02   8.4849617e-02   2.7557321e-03   8.8493134e-02  -1.2945393e-01   1.2519306e-01   5.1546081e-02  -1.5091184e-01  -1.4136317e-01   2.3520229e-02   1.6187882e-01   1.6243221e-01   6.1683977e-02
  -6.9428111e-03   1.6717041e-02   3.0090631e-02   4.9600909e-02   4.7805147e-03   5.2779474e-02  -5.3633635e-03   7.6482825e-03  -1.4070840e-01  -2.5591471e-02  -2.6829194e-02  -2.1326176e-01  -3.3709911e-01  -2.4289004e-02   2.0630886e-01  -1.4543259e-01  -4.6841528e-02  -3.8361561e-02   2.9022689e-01  -1.8266469e-01   4.4806195e-01  -4.6726288e-02  -1.0053793e-01
   2.4863250e-03   1.5705494e-02   3.6125395e-02  -2.9359701e-02  -8.7495923e-02  -8.3758377e-02  -5.6861656e-02   9.1332903e-03   2.1125834e-02  -1.7174444e-01   1.8621754e-01   2.0454241e-01   2.7559095e-01   4.1543166e-01  -4.0927764e-01   1.4463185e-01   8.2013298e-02  -1.3425109e-01   1.2479104e-01   7.9517307e-02  -1.4808463e-01  -2.0725969e-02  -1.8203460e-01
  -2.4406410e-03  -2.4920184e-02  -9.5466625e-03  -1.0393383e-02  -2.6604255e-03   2.8189152e-02  -6.2999037e-03  -1.0282004e-02   2.6203021e-02  -4.6776239e-02   1.5141454e-01  -1.1403616e-01  -2.9174261e-03   9.6375468e-02  -2.8148510e-02  -4.3093355e-02   1.1810223e-01   1.6507467e-01   2.0081469e-01   1.1775192e-01   1.6867703e-01   4.6691496e-01   1.1353758e-01
  -1.1721758e-03  -1.0058619e-02   1.1465354e-02  -2.0285743e-02  -4.5476586e-03  -1.3311115e-02  -2.2715144e-02  -2.0117448e-02   3.8102637e-02  -4.9565289e-03   1.1709392e-01   4.7396378e-02  -1.3606137e-01  -7.4283045e-02  -1.2444395e-03  -1.2495537e-01   2.0119691e-01  -4.1618832e-02   1.1296064e-02   3.6073954e-01  -4.0658912e-01  -3.7328704e-02  -2.7349484e-01
   9.2040149e-03   1.1918809e-02   3.6907998e-03   2.3069052e-02  -3.5454364e-02   6.0554350e-03  -4.8053143e-02   5.8472653e-03   2.8605767e-02  -1.1289843e-01   1.0295374e-01  -7.2791934e-03  -9.4841803e-03   1.5407535e-01   7.5197090e-02   8.2315503e-02   2.6503396e-02   2.2107301e-01   2.0866694e-01   1.3359940e-02   5.7520333e-03  -6.8163725e-02  -3.3089748e-02
  -4.3327091e-03  -8.0357992e-03  -8.6333199e-03  -1.7495095e-02  -2.0700959e-02   2.1843061e-02  -5.8033172e-02  -3.2137439e-02   6.4375955e-02  -3.7028517e-02   4.7267945e-02  -5.6001089e-02  -5.7429787e-02  -9.1178651e-02  -3.0174173e-02   8.1868236e-02   1.7061890e-01  -7.7070050e-02   1.5935583e-02   1.0996149e-01  -1.5179230e-01  -9.3976857e-03   1.0476001e-02
  -7.7150606e-03   3.8623481e-03  -3.2961235e-02  -7.3547290e-03   1.4069569e-02  -3.3277466e-02   1.9498837e-02   9.0069592e-02   4.9524558e-02   7.2592639e-02  -2.2114799e-01   8.4252530e-02  -6.3793521e-02  -6.9263799e-02   1.7190969e-01  -1.3894218e-01  -2.1184039e-02   1.2238691e-02  -1.3228778e-01   9.7916982e-02  -2.6503620e-01   2.7201133e-02  -6.2266996e-02
   4.3887406e-03   3.8584990e-03   4.8950022e-03   1.2215719e-02  -2.8793722e-03  -3.5295444e-02   7.7209803e-04  -3.3783034e-02  -7.8881898e-03   2.0367023e-02   1.4904644e-03   1.2385915e-01  -4.6799367e-02  -3.1888993e-01  -1.8706418e-01  -4.0369438e-02  -1.1307238e-01  -2.1773053e-02  -5.7979536e-02   2.3102188e-01  -2.5739359e-01   2.1517647e-01   6.9191785e-02
  -3.3987443e-03  -2.5669189e-03  -3.7841615e-03  -3.7560859e-03   3.2348308e-03   1.5954265e-02  -1.5597566e-03   4.0983451e-02  -4.1971030e-04   2.2625106e-02  -3.1217209e-02  -3.8229809e-02  -5.3335270e-02   4.9018693e-03   2.1164015e-02   1.9332160e-02  -9.2991648e-03  -7.0544601e-02   3.6959568e-02  -7.7841143e-02  -3.7860869e-02   9.4011264e-03  -6.4960971e-03
   4.7587471e-03  -1.3641481e-03  -6.8756374e-03  -1.2178923e-02   5.0605750e-02   7.1644054e-02   6.3967969e-03  -1.9031803e-02   1.4700067e-01   8.7510634e-02   4.7572530e-02   6.8727876e-02   8.5313245e-03   1.5560623e-01  -1.1235765e-01   1.4413756e-01   6.7930783e-02  -1.6032219e-01  -1.1166921e-01  -2.4396357e-02   1.7093899e-01   1.5255811e-01   6.8005488e-02
  -7.9052009e-03   1.8082051e-02   2.6417381e-02   5.1048379e-02   1.0096676e-02   4.4955797e-02  -7.7267988e-03   1.6492857e-02  -1.4110305e-01  -4.7695702e-03  -5.9760208e-02  -1.9452345e-01  -3.4252236e-01   1.5124185e-03   2.0218943e-01  -1.5193765e-01  -6.9441168e-02  -5.6109338e-02   2.4943755e-01  -1.8565376e-01   4.8076875e-01  -4.7999058e-02  -7.6295294e-02
   1.8966470e-03   1.6876001e-02   3.5192072e-02  -2.9239878e-02  -9.0100627e-02  -9.1955884e-02  -4.5516669e-02   2.5278661e-03   1.8526195e-02  -1.7757351e-01   1.9675259e-01   2.3132931e-01   2.8176937e-01   4.0358611e-01  -4.1039067e-01   1.1357913e-01   7.3481235e-02  -1.3891507e-01   9.0741117e-02   1.0043509e-01  -1.5099264e-01  -1.6347769e-03  -1.6760778e-01
  -6.6836008e-04  -1.9465102e-02  -7.1148921e-03  -1.5345667e-02  -9.9366307e-03   1.8281205e-02  -1.1395760e-02   4.5333579e-04   2.2347404e-02  -3.9787236e-02   1.5602804e-01  -7.4069757e-02  -3.0722689e-02   6.9023445e-02  -1.6674510e-02  -6.4442922e-02   1.2139844e-01   9.3967277e-02   1.4937861e-01   1.4526340e-01   8.0079892e-02   4.6992262e-01   7.7577894e-02
  -1.2817403e-03  -7.6778888e-03   1.1299641e-02  -1.8583446e-02   1.9968376e-04  -1.3922296e-02  -3.5265912e-02  -6.7288421e-03   4.8356905e-02  -1.5535789e-02   9.8772543e-02   3.2474917e-02  -1.4516688e-01  -4.6157855e-02  -1.3091178e-03  -1.5944080e-01   1.9595696e-01   2.8222768e-03   1.8780689e-02   3.2812112e-01  -3.4497878e-01  -1.9839655e-02  -2.7088327e-01
   9.1488162e-03   1.3540776e-02   3.6858240e-03   2.2730148e-02  -3.2721238e-02   5.8911366e-03  -4.6207033e-02   6.2068259e-03   2.5941499e-02  -1.0092204e-01   8.9270565e-02   2.8901990e-03  -1.1061256e-02   1.4264387e-01   5.5126522e-02   7.0454854e-02   1.2615071e-02   1.8436473e-01   1.5500610e-01   2.0100715e-02  -9.4454209e-03  -4.8720061e-02  -2.6671650e-02
  -4.6786429e-03  -7.1221225e-03  -9.4714710e-03  -1.6120551e-02  -1.7117038e-02   2.1079000e-02  -5.7825152e-02  -3.0768156e-02   6.3496078e-02  -3.6270094e-02   4.9179514e-02  -5.7419007e-02  -6.9246477e-02  -6.5606664e-02  -2.5771179e-02   6.0874126e-02   1.6909536e-01  -4.5024189e-02   2.8872167e-02   1.0420042e-01  -1.3208663e-01   1.5794467e-03  -6.5901630e-04
  -7.3663137e-03   4.6831022e-03  -3.2091546e-02  -7.3496187e-03   1.3474010e-02  -3.9402003e-02   1.7195880e-02   7.6037842e-02   4.1828445e-02   6.6558212e-02  -2.3438819e-01   8.1746792e-02  -6.2281516e-02  -7.9374640e-02   1.7146682e-01  -1.5228702e-01  -3.1834071e-02   4.6303751e-02  -1.5881053e-01   1.1174313e-01  -2.8326172e-01   3.3175749e-02  -5.5065573e-02
   4.0488869e-03   5.0482055e-03   7.5934915e-03   1.1790430e-02   6.4122598e-04  -2.7864505e-02   1.0579559e-03  -3.7528595e-02  -2.8720165e-03   2.5514579e-02  -4.0708629e-03   1.1536805e-01  -5.8747440e-02  -3.1925217e-01  -1.8906787e-01  -4.2238553e-02  -9.5476518e-02  -3.6417358e-02  -9.8864934e-02   2.2012526e-01  -1.8798726e-01   2.1173708e-01   3.8133971e-02
  -2.1499469e-03  -3.7276229e-03  -1.4476110e-03  -4.6646104e-03   7.2476107e-03   1.4262898e-02  -2.8276770e-03   2.4408223e-02  -1.0239488e-02   1.4096602e-02  -4.2789566e-02  -4.1776414e-02  -4.8129427e-02   1.6818070e-02   6.0623869e-04   2.2814013e-02  -1.4304282e-02  -6.3900378e-02   3.7666947e-02  -6.5263409e-02  -5.3734232e-02   1.9938294e-02  -5.8647476e-03
   5.2640281e-03   4.6228500e-04  -6.3734178e-03  -1.1889681e-02   5.3209802e-02   6.8548752e-02  -3.1604317e-03  -2.2034305e-02   1.4581824e-01   7.8757407e-02   3.5758263e-02   6.2313664e-02   1.9158122e-02   2.0041574e-01  -8.8370631e-02   1.4837031e-01   5.8531596e-02  -1.3523738e-01  -8.2808012e-02  -4.4652080e-02   1.4974225e-01   1.2104873e-01   6.9553496e-02
  -8.9516118e-03   1.8959578e-02   2.3079439e-02   5.1949076e-02   1.5904222e-02   3.8186760e-02  -1.1166850e-02   2.4162590e-02  -1.4039372e-01   1.4417541e-02  -9.3390535e-02  -1.8148822e-01  -3.4856476e-01   2.0092891e-02   1.9583405e-01  -1.4998175e-01  -8.7879692e-02  -7.8417399e-02   2.1190666e-01  -1.9026539e-01   5.0053517e-01  -5.0486955e-02  -5.4890615e-02
   1.6937195e-03   1.8173642e-02   3.2453754e-02  -2.7774936e-02  -9.1447768e-02  -1.0107160e-01  -3.4350179e-02  -3.0564916e-03   1.3843193e-02  -1.7838619e-01   1.9424905e-01   2.5285511e-01   2.8783588e-01   3.8709687e-01  -3.9565508e-01   8.7596648e-02   6.0785511e-02  -1.2770229e-01   4.7499339e-02   1.2549755e-01  -1.4801608e-01   1.8813659e-02  -1.4264886e-01
   1.3978584e-03  -1.0811697e-02  -4.6489877e-03  -1.8316971e-02  -1.4713001e-02   7.6218410e-03  -1.3844019e-02   1.1695648e-02   1.3106497e-02  -2.3711188e-02   1.3454959e-01  -2.7877391e-02  -4.6616297e-02   3.0804506e-02   3.2359159e-03  -9.2189106e-02   1.0353418e-01   2.3990018e-02   8.0346480e-02   1.3665385e-01   7.6273742e-03   4.3823161e-01   4.2963118e-02
  -7.4685745e-04  -2.2165104e-03   1.1042459e-02  -1.5165681e-02   6.0722356e-03  -1.4288669e-02  -4.4406664e-02   1.0224797e-02   5.0591997e-02  -1.6295025e-02   6.3487392e-02   2.3779832e-02  -1.4394693e-01  -3.6626027e-02   2.3817891e-03  -1.9402952e-01   1.6742558e-01   3.5624813e-02   1.1386025e-02   2.5856868e-01  -2.6409090e-01  -2.0022470e-02  -2.6459889e-01
   8.6240675e-03   1.4880718e-02   3.0419964e-03   2.2697057e-02  -2.6326450e-02   5.2228231e-03  -3.7515057e-02   8.8795532e-03   2.0621199e-02  -7.8087278e-02   6.3558933e-02   1.5901430e-02  -9.5004254e-03   1.1877268e-01   3.2089271e-02   5.5212288e-02  -5.2136648e-03   1.2789996e-01   8.0733981e-02   1.5198949e-02  -1.8077796e-02  -2.4815686e-02  -2.0548816e-02
  -4.5231589e-03  -4.3334624e-03  -1.0300030e-02  -1.3517149e-02  -1.1951045e-02   1.7770533e-02  -5.0678855e-02  -2.9077832e-02   5.4987642e-02  -2.6989353e-02   4.1728609e-02  -4.8234430e-02  -7.4728460e-02  -3.5554276e-02  -1.6903648e-02   2.8078746e-02   1.5055034e-01  -1.7368602e-02   2.9721030e-02   7.7549746e-02  -1.1106449e-01   1.3688609e-02  -8.1090053e-03
  -7.1160695e-03   4.9400810e-03  -3.1141281e-02  -7.1440200e-03   1.3776526e-02  -4.4000971e-02   1.3784346e-02   6.3986842e-02   3.2834291e-02   6.0921412e-02  -2.4451044e-01   7.3800695e-02  -5.7468167e-02  -7.7266933e-02   1.6161597e-01  -1.4953318e-01  -3.9556768e-02   7.5179580e-02  -1.7984766e-01   1.1776229e-01  -2.8261768e-01   3.5603640e-02  -3.7874442e-02
   3.6837568e-03   5.7335341e-03   1.0652325e-02   1.0998648e-02   4.6575928e-03  -1.8828980e-02   5.3424316e-04  -4.1199210e-02   3.3158815e-03   3.0923535e-02  -3.1133721e-03   1.0398169e-01  -7.5334436e-02  -3.1169879e-01  -1.9353359e-01  -4.0698077e-02  -7.5388677e-02  -5.3918725e-02  -1.3376816e-01   1.9779396e-01  -1.2043828e-01   2.1127786e-01   1.4336127e-02
  -1.1824537e-03  -4.9780710e-03   7.9365467e-05  -3.8643938e-03   8.8285964e-03   1.2488588e-02  -6.3598756e-03   1.5441753e-02  -1.7822337e-02   8.2575010e-03  -4.9829745e-02  -4.0572843e-02  -4.5469405e-02   2.3449381e-02  -1.1949240e-02   2.9150644e-02  -1.8696484e-02  -5.3158548e-02   4.6504987e-02  -4.6067587e-02  -6.1175475e-02   2.5842521e-02  -3.6340394e-04
   5.7013579e-03   3.4175849e-03  -7.1189999e-03  -1.1276268e-02   5.3960762e-02   5.8090735e-02  -1.3393460e-02  -2.7689093e-02   1.4232566e-01   6.4354337e-02   1.3502632e-02   6.4486371e-02   3.4715626e-02   2.2123902e-01  -6.0686248e-02   1.4112759e-01   2.7522704e-02  -8.1033647e-02  -5.7984278e-02  -3.7599744e-02   1.0747191e-01   7.1145602e-02   6.7115718e-02
  -1.0072097e-02   1.9470613e-02   2.0226217e-02   5.2323366e-02   2.1647354e-02   3.1993169e-02  -1.4596339e-02   2.9800595e-02  -1.3874117e-01   3.1192084e-02  -1.2726174e-01  -1.7221637e-01  -3.5609655e-01   2.8844632e-02   1.9011510e-01  -1.4205858e-01  -1.0311625e-01  -1.0195123e-01   1.7520635e-01  -1.9475853e-01   5.0401716e-01  -5.4011624e-02  -3.7742809e-02
   1.8689846e-03   1.9523137e-02   2.8186812e-02  -2.5072345e-02  -9.1616266e-02  -1.1110825e-01  -2.4525302e-02  -7.9159467e-03   6.9030604e-03  -1.7518404e-01   1.7873781e-01   2.6830848e-01   2.9552284e-01   3.6697829e-01  -3.6734423e-01   6.7784743e-02   4.2544033e-02  -9.9111652e-02  -1.9756831e-03   1.5480733e-01  -1.3986282e-01   3.8275615e-02  -1.0935662e-01
   3.4359423e-03  -7.3217122e-04  -2.1748505e-03  -1.9044399e-02  -1.6777715e-02  -2.6952460e-03  -1.2755956e-02   2.0690790e-02  -7.1693860e-04  -4.2632753e-04   9.1923828e-02   1.8061091e-02  -4.8481910e-02  -1.6080234e-02   2.7781104e-02  -1.1601613e-01   6.7903633e-02  -4.0575554e-02   2.0256465e-03   9.8892872e-02  -4.5643384e-02   3.7408368e-01   1.5070234e-02
   2.0809500e-04   4.9638362e-03   1.0574722e-02  -9.6807935e-03   1.3230220e-02  -1.3232018e-02  -4.7983582e-02   2.7510346e-02   4.4059620e-02  -7.6370122e-03   1.4584468e-02   1.8324053e-02  -1.2972802e-01  -4.6855620e-02   7.1792196e-03  -2.1933518e-01   1.1465877e-01   6.0854597e-02  -6.6955613e-03   1.5709092e-01  -1.6254021e-01  -3.6493851e-02  -2.4714761e-01
   7.7208955e-03   1.5777886e-02   1.8238679e-03   2.3248777e-02  -1.7187041e-02   4.1774752e-03  -2.3181819e-02   1.3151793e-02   1.3369968e-02  -4.6920496e-02   2.9170330e-02   2.9938935e-02  -4.9458523e-03   8.4413785e-02   9.1117287e-03   3.9840150e-02  -2.4430420e-02   5.7499311e-02  -3.0103056e-03   2.9399583e-03  -2.0957331e-02   4.6575176e-04  -1.1472707e-02
  -4.0109815e-03  -4.1897309e-04  -1.1256553e-02  -9.7769153e-03  -5.5918619e-03   1.2815711e-02  -3.7312235e-02  -2.8422982e-02   3.9458316e-02  -1.0727640e-02   2.6295096e-02  -3.2441658e-02  -7.1897866e-02  -4.6831326e-03  -5.3201609e-03  -9.9526668e-03   1.1629340e-01   7.6313488e-03   2.4013401e-02   3.5722634e-02  -8.5373610e-02   2.1965811e-02  -1.0019501e-02
  -7.0488762e-03   4.5723664e-03  -3.0070885e-02  -7.0412975e-03   1.5166378e-02  -4.6442229e-02   9.4317330e-03   5.4062127e-02   2.3250060e-02   5.5382079e-02  -2.5005293e-01   5.9498278e-02  -5.0646775e-02  -6.5128772e-02   1.4419486e-01  -1.3299736e-01  -4.2412128e-02   9.8906690e-02  -1.9370358e-01   1.1530426e-01  -2.6730543e-01   3.4404632e-02  -1.4121957e-02
   3.3042695e-03   5.8961309e-03   1.3929593e-02   9.8777674e-03   8.9232024e-03  -8.8098268e-03  -1.0160748e-03  -4.4671679e-02   1.0509463e-02   3.6629812e-02   3.9628548e-03   9.1039384e-02  -9.5826641e-02  -2.9508377e-01  -2.0137405e-01  -3.5959622e-02  -5.4245212e-02  -7.4879990e-02  -1.6194266e-01   1.6580352e-01  -5.6798122e-02   2.1345330e-01   1.3302834e-03
  -6.4185295e-04  -6.0487953e-03   4.1685284e-04  -2.0772557e-03   8.0529811e-03   1.1276674e-02  -1.0723346e-02   1.4145949e-02  -2.1646300e-02   5.1094775e-03  -5.1535454e-02  -3.5827600e-02  -4.4883896e-02   2.3172522e-02  -1.6892318e-02   3.6254025e-02  -2.2453947e-02  -3.9721624e-02   6.0321411e-02  -2.3454356e-02  -6.0393567e-02   2.7326202e-02   7.2646486e-03
   5.9304055e-03   6.8715163e-03  -8.7695509e-03  -1.0487787e-02   5.2901048e-02   4.2540404e-02  -2.2759972e-02  -3.4233078e-02   1.3668405e-01   4.6052931e-02  -1.4274387e-02   7.2828910e-02   5.3969833e-02   2.1997198e-01  -3.3417401e-02   1.2691665e-01  -1.6291030e-02  -8.7453010e-03  -3.8978521e-02  -8.2866775e-03   5.6174274e-02   1.0214250e-02   6.1378427e-02
  -1.1227553e-02   1.9764277e-02   1.7973333e-02   5.2276422e-02   2.6676401e-02   2.5771123e-02  -1.6721307e-02   3.2578551e-02  -1.3644259e-01   4.5200140e-02  -1.6142007e-01  -1.6409752e-01  -3.6528466e-01   2.5921763e-02   1.8779389e-01  -1.3013983e-01  -1.1645521e-01  -1.2431665e-01   1.3633091e-01  -1.9759813e-01   4.8896172e-01  -5.8637699e-02  -2.5290213e-02
   2.3669493e-03   2.0807123e-02   2.2816995e-02  -2.1352292e-02  -9.0754714e-02  -1.2171930e-01  -1.6957901e-02  -1.2113300e-02  -2.2053379e-03  -1.6905118e-01   1.5200242e-01   2.7721119e-01   3.0577366e-01   3.4478857e-01  -3.2881617e-01   5.4548230e-02   1.8654902e-02  -5.4020594e-02  -5.3830212e-02   1.8748678e-01  -1.2701013e-01   5.4661856e-02  -7.0562275e-02
   5.0928408e-03   8.6618266e-03   3.0142484e-04  -1.7760427e-02  -1.6702832e-02  -1.1706794e-02  -8.5316159e-03   2.4919672e-02  -1.6617011e-02   2.6081767e-02   3.7142554e-02   5.7053211e-02  -3.7254040e-02  -6.5704214e-02   5.2306633e-02  -1.2667350e-01   2.3093334e-02  -9.5809161e-02  -7.4285850e-02   4.5694805e-02  -8.1525787e-02   2.8481227e-01  -2.8516436e-03
   1.2612705e-03   1.1886952e-02   9.7974782e-03  -2.2336996e-03   2.1078665e-02  -9.6742448e-03  -4.5297182e-02   4.1557596e-02   3.0151607e-02   7.3054821e-03  -4.0017212e-02   1.1611116e-02  -1.0242722e-01  -7.2778188e-02   9.3450773e-03  -2.2567286e-01   4.2689888e-02   8.4477658e-02  -2.6895213e-02   3.6922177e-02  -4.2893592e-02  -6.3084263e-02  -2.1267161e-01
   6.5315609e-03   1.6008850e-02   1.8766142e-04   2.4403909e-02  -6.6097071e-03   2.8713243e-03  -5.1680934e-03   1.7960847e-02   5.4010045e-03  -1.1095985e-02  -9.3992077e-03   4.3068126e-02   1.8808807e-03   4.3382135e-02  -1.1259022e-02   2.6964815e-02  -4.1640597e-02  -1.9680884e-02  -8.5315142e-02  -1.1312418e-02  -2.0426890e-02   2.4475988e-02   1.6323612e-03
  -3.3269873e-03   3.5914347e-03  -1.2388400e-02  -5.2149946e-03   1.1145231e-03   7.3119061e-03  -1.9478927e-02  -2.9901387e-02   1.8857943e-02   9.5560859e-03   6.2712713e-03  -1.4868453e-02  -6.0429063e-02   2.4995505e-02   6.4575404e-03  -4.6006740e-02   7.0798679e-02   3.1853785e-02   1.7764640e-02  -1.3247803e-02  -5.3775355e-02   2.4620944e-02  -5.0412858e-03
  -7.2194944e-03   3.6240853e-03  -2.8841019e-02  -7.2954224e-03   1.7702401e-02  -4.6405371e-02   4.6215430e-03   4.6012783e-02   1.3709134e-02   4.9720350e-02  -2.5017345e-01   3.8953818e-02  -4.3041727e-02  -4.6575298e-02   1.2188934e-01  -1.0622362e-01  -3.9416013e-02   1.1811491e-01  -2.0006659e-01   1.0431559e-01  -2.4277445e-01   2.9230088e-02   1.2687547e-02
   2.9338436e-03   5.5914905e-03   1.7258657e-02   8.4805854e-03   1.3130028e-02   1.3482329e-03  -3.8240260e-03  -4.7900485e-02   1.8381025e-02   4.2440815e-02   1.5966309e-02   7.8016202e-02  -1.1911300e-01  -2.6878509e-01  -2.1300286e-01  -2.8656900e-02  -3.3953823e-02  -9.9083435e-02  -1.8295089e-01   1.2687733e-01   9.2249075e-04   2.1713600e-01   1.6667020e-03
  -6.3368040e-04  -6.5963872e-03  -7.3295033e-04  -1.7133045e-04   5.3506225e-03   1.1099978e-02  -1.4072739e-02   1.9490709e-02  -2.0597026e-02   4.4630188e-03  -4.7817260e-02  -2.9071516e-02  -4.5470066e-02   1.4836438e-02  -1.4850565e-02   4.1637851e-02  -2.6141549e-02  -2.4435854e-02   7.4379482e-02  -1.5456501e-03  -5.2466912e-02   2.4391444e-02   1.4379901e-02
   5.8375770e-03   1.0082741e-02  -1.0817359e-02  -9.7459830e-03   5.0335040e-02   2.5222999e-02  -2.9628316e-02  -3.9727174e-02   1.2959158e-01   2.6264725e-02  -4.1021345e-02   8.4368582e-02   7.4545359e-02   2.0117314e-01  -1.0699113e-02   1.1028290e-01  -6.1315972e-02   6.6968405e-02  -2.6220408e-02   3.4714320e-02   8.2016230e-03  -5.1633446e-02   5.2377917e-02
  -1.2357579e-02   1.9980800e-02   1.6391603e-02   5.1983968e-02   3.0298228e-02   1.8910853e-02  -1.6214916e-02   3.1820213e-02  -1.3385398e-01   5.6497298e-02  -1.9625392e-01  -1.5427826e-01  -3.7564868e-01   1.0591614e-02   1.9126168e-01  -1.1531361e-01  -1.2921694e-01  -1.4431638e-01   9.2350092e-02  -1.9755992e-01   4.5445895e-01  -6.4550052e-02  -1.7110491e-02
   3.0972152e-03   2.1883024e-02   1.6870654e-02  -1.6937888e-02  -8.9037464e-02  -1.3218152e-01  -1.2172759e-02  -1.5458513e-02  -1.3101241e-02  -1.6095117e-01   1.1734248e-01   2.7944353e-01   3.1854317e-01   3.2237455e-01  -2.8414689e-01   4.7499937e-02  -9.5862453e-03   4.1464751e-03  -1.0382015e-01   2.2152397e-01  -1.0973555e-01   6.6468425e-02  -2.9494405e-02
   6.0777497e-03   1.5520240e-02   2.7738554e-03  -1.5164448e-02  -1.5602350e-02  -1.8867590e-02  -2.7167269e-03   2.2913090e-02  -3.1013988e-02   5.0760545e-02  -1.9009359e-02   8.4088698e-02  -1.6849639e-02  -1.0966005e-01   7.2570902e-02  -1.1908779e-01  -1.9215525e-02  -1.3956420e-01  -1.3717694e-01  -6.1506168e-03  -1.0625665e-01   1.8133854e-01  -1.1092920e-02
   2.0889659e-03   1.6577799e-02   8.6324864e-03   6.5401604e-03   2.8390989e-02  -3.0012907e-03  -3.7255202e-02   4.9456507e-02   1.2034775e-02   2.3527117e-02  -8.9721149e-02  -3.7618434e-04  -6.4941744e-02  -1.0583415e-01   5.2666105e-03  -2.0687434e-01  -3.8654169e-02   1.1219357e-01  -3.9028205e-02  -8.3630574e-02   8.7738539e-02  -8.9924092e-02  -1.5928537e-01
   5.1550066e-03   1.5414395e-02  -1.6207054e-03   2.5899531e-02   3.8800392e-03   1.3564277e-03   1.4008366e-02   2.2119026e-02  -1.8187945e-03   2.5034328e-02  -4.7240278e-02   5.3764805e-02   9.6823640e-03   8.5688188e-04  -2.6996949e-02   1.7707326e-02  -5.3263680e-02  -9.6121347e-02  -1.5708895e-01  -2.2420438e-02  -2.0076288e-02   4.4899559e-02   1.7140343e-02
  -2.6430853e-03   6.6947577e-03  -1.3633833e-02  -3.6497535e-04   7.0109502e-03   2.3269897e-03   2.0652053e-04  -3.3912389e-02  -3.8517963e-03   3.0031564e-02  -1.3959291e-02   7.5336787e-05  -4.1805015e-02   5.3010780e-02   1.5769030e-02  -7.4055218e-02   2.0744143e-02   5.6427915e-02   1.5776447e-02  -6.1025693e-02  -1.7603832e-02   2.2954688e-02   6.8951532e-03
  -7.6457400e-03   2.2134042e-03  -2.7420872e-02  -8.0669086e-03   2.1285503e-02  -4.3886495e-02   1.0543361e-04   3.9261888e-02   4.7387982e-03   4.3879600e-02  -2.4474881e-01   1.3258745e-02  -3.5563899e-02  -2.6091066e-02   9.7896161e-02  -7.3278358e-02  -3.0502287e-02   1.3368895e-01  -1.9986233e-01   8.5404410e-02  -2.1497310e-01   1.9598882e-02   3.9433606e-02
   2.6058130e-03   4.9448302e-03   2.0446216e-02   6.8776614e-03   1.6970334e-02   1.0649916e-02  -8.1342603e-03  -5.0881496e-02   2.6473788e-02   4.7985278e-02   3.1017037e-02   6.6355355e-02  -1.4375455e-01  -2.3277820e-01  -2.2826499e-01  -1.9695457e-02  -1.6771043e-02  -1.2539991e-01  -1.9663417e-01   8.4463349e-02   5.0966387e-02   2.2045101e-01   1.6794929e-02
  -1.2079692e-03  -6.2798669e-03  -3.5219235e-03   1.0592679e-03   1.4026296e-03   1.2152776e-02  -1.4559281e-02   2.9648792e-02  -1.4204204e-02   6.0531461e-03  -3.9250926e-02  -2.1801545e-02  -4.6118193e-02  -1.9538387e-03  -6.5016806e-03   4.3235041e-02  -3.0895579e-02  -7.4951770e-03   8.3216558e-02   1.5378729e-02  -3.8923316e-02   1.6728881e-02   1.9371163e-02
   5.3678179e-03   1.2364349e-02  -1.2708398e-02  -9.3100260e-03   4.6774333e-02   9.8783773e-03  -3.2458975e-02  -4.2506646e-02   1.2214143e-01   7.7046818e-03  -5.9986397e-02   9.6244061e-02   9.3391907e-02   1.7104160e-01   4.2919205e-03   9.4862892e-02  -9.5515934e-02   1.3047827e-01  -1.9022435e-02   8.0832636e-02  -2.6116303e-02  -1.0355325e-01   3.9359842e-02
  -1.3390826e-02   2.0226166e-02   1.5497825e-02   5.1663183e-02   3.1842210e-02   1.0901094e-02  -1.1909962e-02   2.7112960e-02  -1.3130816e-01   6.5475774e-02  -2.3226331e-01  -1.4007546e-01  -3.8622216e-01  -1.6519076e-02   2.0233120e-01  -9.7654475e-02  -1.4246638e-01  -1.6196638e-01   4.0992079e-02  -1.9377839e-01   4.0104748e-01  -7.1937309e-02  -1.2170908e-02
   3.9499320e-03   2.2599953e-02   1.0916868e-02  -1.2230753e-02  -8.6625049e-02  -1.4142953e-01  -1.0213522e-02  -1.7564504e-02  -2.5122447e-02  -1.5156419e-01   7.9154551e-02   2.7524457e-01   3.3277517e-01   3.0157104e-01  -2.3771800e-01   4.5425081e-02  -3.9593129e-02   6.9614265e-02  -1.4785757e-01   2.5380709e-01  -8.8218141e-02   7.3032628e-02   1.0540175e-02
   6.2384243e-03   1.8761170e-02   5.2162227e-03  -1.2245204e-02  -1.4707649e-02  -2.4214037e-02   2.5426087e-03   1.4764435e-02  -4.0265485e-02   6.8882604e-02  -6.6630753e-02   9.7202440e-02   6.7472733e-03  -1.3932234e-01   8.5849045e-02  -9.3914441e-02  -4.7333204e-02  -1.7239255e-01  -1.7800156e-01  -4.1189359e-02  -1.2873633e-01   7.5652231e-02  -1.3640600e-02
   2.4597581e-03   1.7677286e-02   7.0197953e-03   1.5576418e-02   3.3676216e-02   6.6712544e-03  -2.6013134e-02   4.9769428e-02  -6.2549397e-03   3.5605721e-02  -1.2403827e-01  -1.9414838e-02  -2.2603118e-02  -1.3514325e-01  -7.2969896e-03  -1.6294002e-01  -1.1740703e-01   1.4747250e-01  -3.4546602e-02  -1.8583848e-01   2.1866262e-01  -1.0581776e-01  -9.0168461e-02
   3.7019112e-03   1.4005881e-02  -3.2799894e-03   2.7240685e-02   1.2760164e-02  -4.0379689e-04   3.1599796e-02   2.4515950e-02  -6.8912951e-03   5.7043116e-02  -7.9856048e-02   6.1292033e-02   1.6799254e-02  -3.7486536e-02  -3.6564120e-02   1.1297593e-02  -5.6358555e-02  -1.6483399e-01  -2.1229975e-01  -2.6817016e-02  -2.4089984e-02   5.9425556e-02   3.0851928e-02
  -2.0729813e-03   8.1989114e-03  -1.4824616e-02   4.1025055e-03   1.0888310e-02  -1.2953651e-03   1.8683655e-02  -3.9892944e-02  -2.5279795e-02   4.6775855e-02  -3.0327454e-02   9.4172979e-03  -1.8982684e-02   7.9677255e-02   2.0443010e-02  -9.0438091e-02  -2.6568636e-02   8.1107974e-02   2.0136362e-02  -1.0119943e-01   1.9627575e-02   2.0417356e-02   2.4326062e-02
  -8.3068754e-03   4.9084117e-04  -2.5794053e-02  -9.3983881e-03   2.5640849e-02  -3.9160212e-02  -3.2135116e-03   3.3030774e-02  -3.2296742e-03   3.7993457e-02  -2.3429264e-01  -1.5692845e-02  -2.8678028e-02  -8.2987504e-03   7.5527225e-02  -3.8070722e-02  -1.6317493e-02   1.4641998e-01  -1.9488937e-01   5.9887506e-02  -1.8959166e-01   5.1444497e-03   6.3663494e-02
   2.3581316e-03   4.1367143e-03   2.3274164e-02   5.1571204e-03   2.0199104e-02   1.8055584e-02  -1.4181501e-02  -5.3609617e-02   3.4251298e-02   5.2786301e-02   4.6744339e-02   5.7300115e-02  -1.6804291e-01  -1.8767465e-01  -2.4642674e-01  -1.0068696e-02  -5.0852067e-03  -1.5182899e-01  -2.0310106e-01   4.2423853e-02   9.2088261e-02   2.2092808e-01   4.7013882e-02
  -2.3417360e-03  -4.8576599e-03  -7.8843496e-03   1.0784605e-03  -2.9862509e-03   1.4291414e-02  -1.0782541e-02   4.2315656e-02  -2.8081868e-03   9.5669214e-03  -2.6989375e-02  -1.5206729e-02  -4.5729727e-02  -2.6528020e-02   7.3519394e-03   4.0072867e-02  -3.8124662e-02   1.1333223e-02   8.1763448e-02   2.3775126e-02  -2.1505372e-02   3.9779049e-03   2.2153661e-02
   4.5455400e-03   1.3234855e-02  -1.3966720e-02  -9.4142636e-03   4.2869269e-02  -7.5055328e-05  -3.0056896e-02  -4.1558817e-02   1.1556215e-01  -7.0046911e-03  -6.5736874e-02   1.0617257e-01   1.0745276e-01   1.3646990e-01   1.0180782e-02   8.2890807e-02  -1.0888328e-01   1.6809815e-01  -1.5907496e-02   1.1922284e-01  -4.0185647e-02  -1.3626278e-01   2.1105384e-02
  -1.4255712e-02   2.0564003e-02   1.5247735e-02   5.1533621e-02   3.0742995e-02   1.4067225e-03  -2.9794974e-03   1.8392855e-02  -1.2904803e-01   7.2755199e-02  -2.6983029e-01  -1.1933460e-01  -3.9576516e-01  -5.3360766e-02   2.2208730e-01  -7.6339705e-02  -1.5685225e-01  -1.7828673e-01  -1.8938393e-02  -1.8578094e-01   3.3067636e-01  -8.0923902e-02  -9.1449720e-03
   4.8120059e-03   2.2811968e-02   5.5056474e-03  -7.6745885e-03  -8.3637757e-02  -1.4815353e-01  -1.0627040e-02  -1.7955290e-02  -3.7372215e-02  -1.4118979e-01   4.2387922e-02   2.6517666e-01   3.4654517e-01   2.8391514e-01  -1.9378468e-01   4.6321945e-02  -6.7773486e-02   1.3481797e-01  -1.8250247e-01   2.8038380e-01  -6.2689752e-02   7.4699012e-02   4.6504787e-02
   5.5976383e-03   1.8327653e-02   7.5687004e-03  -1.0004631e-02  -1.4897137e-02  -2.8339865e-02   5.2609694e-03   2.1718078e-03  -4.1751056e-02   7.7349712e-02  -9.8990310e-02   9.7863851e-02   2.6969989e-02  -1.4840596e-01   9.1537884e-02  -5.7039355e-02  -5.2710055e-02  -1.9758254e-01  -1.9286551e-01  -4.9125083e-02  -1.5782861e-01  -2.1957501e-02  -1.7004234e-02
   2.2980739e-03   1.4861558e-02   4.9184826e-03   2.3630848e-02   3.5671343e-02   1.8427561e-02  -1.4237007e-02   4.2907736e-02  -2.0983282e-02   3.9305154e-02  -1.3539207e-01  -4.4106518e-02   1.8118693e-02  -1.5046391e-01  -2.8351997e-02  -1.0062238e-01  -1.8274499e-01   1.9039631e-01  -9.2570903e-03  -2.5525657e-01   3.3787351e-01  -1.0122774e-01  -1.3071719e-02
   2.2935044e-03   1.2009907e-02  -4.4209266e-03   2.7806783e-02   1.8742058e-02  -2.5149179e-03   4.5023058e-02   2.4252514e-02  -8.8103906e-03   8.1034541e-02  -1.0386336e-01   6.5805151e-02   2.1567154e-02  -6.6498107e-02  -3.8889812e-02   5.3214545e-03  -4.9382201e-02  -2.2002194e-01  -2.4860858e-01  -2.3495508e-02  -3.6352710e-02   6.5402343e-02   3.6782375e-02
  -1.6480562e-03   7.8958626e-03  -1.5707531e-02   7.5170215e-03   1.1788903e-02  -3.0502181e-03   3.3010000e-02  -4.6328767e-02  -4.2288693e-02   5.6567813e-02  -4.0245868e-02   1.2134772e-02   4.3162029e-03   1.0503343e-01   1.9234926e-02  -9.4080695e-02  -6.4943943e-02   1.0414435e-01   2.9392563e-02  -1.3102324e-01   5.3299390e-02   2.1184300e-02   4.4603211e-02
  -9.1463365e-03  -1.3984693e-03  -2.3964347e-02  -1.1214211e-02   3.0318927e-02  -3.2714175e-02  -4.4450233e-03   2.6505213e-02  -9.8198239e-03   3.2360396e-02  -2.1973456e-01  -4.5439690e-02  -2.2381929e-02   2.8232660e-03   5.7793898e-02  -3.8195796e-03   2.0585296e-03   1.5669363e-01  -1.8736036e-01   2.9798959e-02  -1.7137898e-01  -1.4102676e-02   8.3680881e-02
   2.2266329e-03   3.3786029e-03   2.5505919e-02   3.4196079e-03   2.2690282e-02   2.2613670e-02  -2.2139972e-02  -5.6046240e-02   4.1167895e-02   5.6343872e-02   6.0569244e-02   5.1750361e-02  -1.9007030e-01  -1.3473424e-01  -2.6622772e-01  -6.7141488e-04  -1.1111085e-03  -1.7567605e-01  -2.0272574e-01   4.6833352e-03   1.2378094e-01   2.1578759e-01   9.1453502e-02
  -3.9231154e-03  -2.2841543e-03  -1.3471714e-02  -2.7563658e-04  -7.0208805e-03   1.7034716e-02  -2.2105369e-03   5.5039429e-02   1.2379063e-02   1.4597519e-02  -1.2651341e-02  -1.0017956e-02  -4.3410920e-02  -5.6882737e-02   2.5531822e-02   3.2627095e-02  -4.8931355e-02   3.2194382e-02   6.6611776e-02   2.1678844e-02  -2.1544318e-03  -1.3719669e-02   2.4059224e-02
   3.4789827e-03   1.2525243e-02  -1.4302233e-02  -1.0192542e-02   3.9329524e-02  -2.2427716e-03  -2.1869238e-02  -3.6767855e-02   1.1089412e-01  -1.5736086e-02  -5.5470808e-02   1.1265740e-01   1.1439553e-01   1.0427618e-01   7.8875452e-03   7.5198604e-02  -9.5634790e-02   1.7084022e-01  -1.4976828e-02   1.4052160e-01  -3.1995557e-02  -1.4418525e-01  -3.3470798e-03
  -1.4890081e-02   2.1023291e-02   1.5532174e-02   5.1774870e-02   2.6636348e-02  -9.6837488e-03   1.0922383e-02   5.9887414e-03  -1.2718967e-01   7.9061127e-02  -3.0904425e-01  -9.0718115e-02  -4.0297278e-01  -9.6630979e-02   2.5079931e-01  -4.9991459e-02  -1.7257103e-01  -1.9489731e-01  -8.7347858e-02  -1.7353717e-01   2.4654255e-01  -9.1565053e-02  -6.7203514e-03
   5.5815642e-03   2.2386556e-02   1.1080068e-03  -3.7112166e-03  -8.0147107e-02  -1.5095569e-01  -1.2530594e-02  -1.6196175e-02  -4.8796622e-02  -1.2973377e-01   1.1943388e-02   2.5005746e-01   3.5733595e-01   2.7041989e-01  -1.5605830e-01   4.7538278e-02  -8.9939657e-02   1.9127942e-01  -2.0533221e-01   2.9695113e-01  -3.3611883e-02   7.2879551e-02   7.5943660e-02
   4.3392557e-03   1.5119353e-02   9.7369824e-03  -9.1678597e-03  -1.6332779e-02  -3.2183304e-02   4.3346156e-03  -1.2006204e-02  -3.4692923e-02   7.5496102e-02  -1.1374145e-01   9.0265372e-02   3.8280607e-02  -1.3499455e-01   9.1092113e-02  -1.7211372e-02  -3.2189951e-02  -2.2021499e-01  -1.8312063e-01  -2.6935863e-02  -1.9954317e-01  -1.0508099e-01  -2.8087191e-02
   1.6979776e-03   8.9342688e-03   2.3158563e-03   2.9599286e-02   3.3799246e-02   3.0709724e-02  -4.2388301e-03   3.0966056e-02  -2.9788758e-02   3.2825269e-02  -1.2107625e-01  -7.0093433e-02   5.1244854e-02  -1.4505427e-01  -5.5476829e-02  -3.1705744e-02  -2.2784572e-01   2.3762726e-01   3.5348898e-02  -2.8505180e-01   4.3493580e-01  -7.0984325e-02   6.1601343e-02
   1.0515344e-03   9.8321196e-03  -4.6656778e-03   2.6988427e-02   2.0961972e-02  -5.0893740e-03   5.2241609e-02   2.0695164e-02  -7.1955273e-03   9.4132263e-02  -1.1738824e-01   6.8153840e-02   2.2701848e-02  -8.2476899e-02  -3.3416336e-02  -3.4538379e-03  -3.2647449e-02  -2.5743674e-01  -2.6725872e-01  -1.4328391e-02  -5.9527031e-02   5.9699765e-02   2.8453429e-02
  -1.3212090e-03   6.0738472e-03  -1.5980192e-02   9.3612972e-03   9.2703539e-03  -2.7872991e-03   4.0935260e-02  -5.1061543e-02  -5.2602044e-02   5.7479961e-02  -4.3259868e-02   9.0459227e-03   2.4466227e-02   1.2790832e-01   1.1960987e-02  -8.5767116e-02  -9.0658208e-02   1.2272703e-01   3.8721139e-02  -1.5208218e-01   7.9070050e-02   2.8715689e-02   6.4707023e-02
  -1.0077203e-02  -3.3371540e-03  -2.1963122e-02  -1.3343459e-02   3.4724968e-02  -2.5170022e-02  -2.8924620e-03   1.9019792e-02  -1.4656992e-02   2.7380328e-02  -2.0212800e-01  -7.3200786e-02  -1.6269356e-02   4.6323363e-03   4.7004579e-02   2.7245023e-02   2.3361829e-02   1.6426867e-01  -1.7947206e-01  -2.1857717e-03  -1.6358702e-01  -3.7479341e-02   9.8469737e-02
   2.2384757e-03   2.8806602e-03   2.6897339e-02   1.7672423e-03   2.4480458e-02   2.3605226e-02  -3.2048173e-02  -5.8106434e-02   4.6761042e-02   5.8214792e-02   7.0045758e-02   5.0164679e-02  -2.0781177e-01  -7.5848353e-02  -2.8597718e-01   7.8569209e-03  -6.5097194e-03  -1.9386134e-01  -1.9613817e-01  -2.5126197e-02   1.4639080e-01   2.0235070e-01   1.4804761e-01
  -5.7431093e-03   1.2181450e-03  -1.9613936e-02  -2.7588454e-03  -1.0035106e-02   1.9638323e-02   1.0515058e-02   6.5540128e-02   2.9333233e-02   2.0561428e-02   1.8146456e-03  -6.4869898e-03  -3.8648210e-02  -8.9544157e-02   4.6171142e-02   2.2778317e-02  -6.3402535e-02   5.4484784e-02   3.7203369e-02   9.3198502e-03   1.6886802e-02  -3.5055154e-02   2.7141135e-02
   2.3459859e-03   1.0422184e-02  -1.3682029e-02  -1.1609718e-02   3.6835772e-02   4.1976604e-03  -8.2748128e-03  -2.8978040e-02   1.0867978e-01  -1.7226896e-02  -2.9863766e-02   1.1494491e-01   1.1326124e-01   8.0631603e-02   6.3575947e-04   7.1609853e-02  -5.5721368e-02   1.3655419e-01  -1.4252572e-02   1.3844892e-01  -4.0625502e-03  -1.2700486e-01  -3.3812433e-02
  -1.5249258e-02   2.1614090e-02   1.6178204e-02   5.2488001e-02   1.9458735e-02  -2.2235075e-02   2.9579076e-02  -9.3863080e-03  -1.2572174e-01   8.5110245e-02  -3.4960678e-01  -5.3929054e-02  -4.0664133e-01  -1.4218148e-01   2.8789086e-01  -1.7189958e-02  -1.8942787e-01  -2.1346132e-01  -1.6283185e-01  -1.5752369e-01   1.5283549e-01  -1.0388711e-01  -3.8292482e-03
   6.1786738e-03   2.1209851e-02  -1.9363431e-03  -7.3443095e-04  -7.6184969e-02  -1.4855218e-01  -1.4755404e-02  -1.2019586e-02  -5.8286482e-02  -1.1678731e-01  -7.9167450e-03   2.3087754e-01   3.6239965e-01   2.6142562e-01  -1.2734935e-01   4.6018561e-02  -1.0180800e-01   2.3071009e-01  -2.1517197e-01   2.9954854e-01  -1.8413166e-03   6.9994030e-02   9.7201113e-02
   2.7490750e-03   1.0627150e-02   1.1605164e-02  -9.9711947e-03  -1.8325999e-02  -3.6689755e-02  -2.1167694e-05  -2.4539608e-02  -2.0450893e-02   6.5138408e-02  -1.1273692e-01   7.9738687e-02   3.7445993e-02  -1.0237348e-01   8.7341635e-02   1.7391410e-02   1.1319463e-02  -2.4548339e-01  -1.5424751e-01   2.1260480e-02  -2.5498397e-01  -1.7212260e-01  -5.1806997e-02
   8.8388711e-04   1.5645914e-03  -7.5284757e-04   3.2807605e-02   2.8439866e-02   4.1660422e-02   2.7296093e-03   1.7085954e-02  -3.2310563e-02   1.7310121e-02  -8.3779426e-02  -9.1372680e-02   7.2744755e-02  -1.1757727e-01  -8.4355650e-02   3.0500376e-02  -2.5138703e-01   2.8344450e-01   9.2565518e-02  -2.7698772e-01   5.0351906e-01  -1.5905173e-02   1.2352043e-01
   8.0843596e-05   7.9489240e-03  -3.6776198e-03   2.4323233e-02   1.9097837e-02  -8.1608206e-03   5.2057695e-02   1.3475729e-02  -2.3696362e-03   9.4765343e-02  -1.2007189e-01   6.9447150e-02   1.9593712e-02  -8.3783012e-02  -2.0216495e-02  -1.7909012e-02  -8.3234885e-03  -2.7446405e-01  -2.7224252e-01  -3.5788704e-03  -9.4338110e-02   3.8943989e-02   4.1848177e-04
  -9.9690658e-04   3.3711247e-03  -1.5336125e-02   9.3932650e-03   3.5563834e-03  -6.4447241e-04   4.1342181e-02  -5.1823865e-02  -5.5184521e-02   4.9118211e-02  -4.0972890e-02   2.1588730e-03   3.8699254e-02   1.4550522e-01  -6.7391484e-04  -6.6824588e-02  -1.0305911e-01   1.3388486e-01   4.1139731e-02  -1.6959547e-01   9.4113721e-02   4.4717209e-02   8.2210285e-02
  -1.0989007e-02  -5.2380899e-03  -1.9858897e-02  -1.5561525e-02   3.8183092e-02  -1.7200603e-02   1.7828257e-03   1.0230011e-02  -1.7324601e-02   2.3472114e-02  -1.8235688e-01  -9.6110897e-02  -9.6318641e-03  -3.7080703e-03   4.4403561e-02   5.3904195e-02   4.6286331e-02   1.6819787e-01  -1.7308578e-01  -3.2941305e-02  -1.6757469e-01  -6.3565923e-02   1.0751730e-01
   2.4073408e-03   2.8162999e-03   2.7211564e-02   2.8747771e-04   2.5795251e-02   2.0683625e-02  -4.3718496e-02  -5.9672214e-02   5.0758144e-02   5.8081199e-02   7.3222366e-02   5.2523262e-02  -2.1922256e-01  -1.3481285e-02  -3.0366772e-01   1.5236787e-02  -2.1972993e-02  -2.0333386e-01  -1.8419575e-01  -4.3989781e-02   1.6107600e-01   1.7853300e-01   2.1347941e-01
  -7.5017682e-03   5.1332179e-03  -2.5329528e-02  -5.7740572e-03  -1.1580161e-02   2.1248103e-02   2.5468913e-02   7.1989838e-02   4.5396312e-02   2.6626192e-02   1.4305009e-02  -4.4689832e-03  -3.1473368e-02  -1.1965904e-01   6.6470005e-02   1.3401421e-02  -8.0015126e-02   7.6265407e-02  -3.3587120e-03  -1.0632774e-02   3.3028045e-02  -5.7033214e-02   3.3112537e-02
   1.3630709e-03   7.4398457e-03  -1.2350457e-02  -1.3422596e-02   3.5946123e-02   1.8202733e-02   9.2107304e-03  -1.9852838e-02   1.0874789e-01  -1.1367487e-02   6.7292022e-03   1.1280230e-01   1.0489524e-01   7.0626584e-02  -6.5642042e-03   7.1528447e-02   4.6831923e-03   7.1022870e-02  -1.1945778e-02   1.1104772e-01   3.7393404e-02  -9.0266936e-02  -6.8216882e-02
  -1.5312698e-02   2.2339994e-02   1.6957266e-02   5.3666492e-02   9.5363510e-03  -3.5855474e-02   5.2197187e-02  -2.6700080e-02  -1.2453735e-01   9.1512838e-02  -3.9080829e-01  -9.8855489e-03  -4.0577997e-01  -1.8561469e-01   3.3196122e-01   2.2922437e-02  -2.0692969e-01  -2.3503591e-01  -2.4277953e-01  -1.3877652e-01   5.4420790e-02  -1.1792979e-01   2.4078917e-04
   6.5512341e-03   1.9191934e-02  -3.4588714e-03   9.5236542e-04  -7.1765948e-02  -1.4000435e-01  -1.6044580e-02  -5.4234972e-03  -6.4793121e-02  -1.0179093e-01  -1.4093676e-02   2.0872854e-01   3.5916481e-01   2.5651660e-01  -1.0930934e-01   3.8654212e-02  -9.9546412e-02   2.4621371e-01  -2.1220323e-01   2.8538194e-01   3.1236247e-02   6.9285958e-02   1.0950388e-01
   1.1295150e-03   6.3929232e-03   1.3058848e-02  -1.2096837e-02  -1.9487610e-02  -4.2452526e-02  -6.2734374e-03  -3.2716294e-02  -2.1922198e-03   4.9860401e-02  -1.0056686e-01   7.0816045e-02   2.4130376e-02  -5.8367090e-02   8.3425260e-02   4.2486021e-02   6.9932853e-02  -2.7677386e-01  -1.1355007e-01   8.6407426e-02  -3.1971532e-01  -2.2572406e-01  -8.9244729e-02
   1.3166805e-04  -5.2436336e-03  -4.1765941e-03   3.3179532e-02   2.0917038e-02   4.9547415e-02   6.7927637e-03   4.5653506e-03  -3.0164661e-02  -3.5407225e-03  -3.0555740e-02  -1.0229068e-01   8.1376373e-02  -7.2485517e-02  -1.0986960e-01   7.5343799e-02  -2.5719284e-01   3.2144568e-01   1.5256051e-01  -2.3985672e-01   5.4271513e-01   5.7169166e-02   1.6511019e-01
  -5.5041706e-04   6.7609023e-03  -1.2188095e-03   1.9603230e-02   1.3394814e-02  -1.1605761e-02   4.4262692e-02   2.4875815e-03   4.7396217e-03   8.2732639e-02  -1.1272810e-01   7.0524005e-02   1.2428043e-02  -7.1022241e-02  -1.3788275e-04  -3.9403003e-02   2.0047068e-02  -2.7004993e-01  -2.6893052e-01   3.3011641e-03  -1.3925092e-01   1.7618089e-04  -5.0295339e-02
  -5.7761096e-04   5.2499888e-04  -1.3514804e-02   7.6996304e-03  -4.4677959e-03   3.0588803e-03   3.4448228e-02  -4.6865327e-02  -5.0316227e-02   3.2476386e-02  -3.6274296e-02  -6.2741044e-03   4.5561202e-02   1.5372249e-01  -1.7451462e-02  -3.7791376e-02  -1.0423512e-01   1.3556808e-01   2.9521470e-02  -1.9048162e-01   9.7818368e-02   6.8745796e-02   9.6015789e-02
  -1.1755070e-02  -7.0306955e-03  -1.7767967e-02  -1.7642826e-02   4.0035419e-02  -9.4485295e-03   9.4410709e-03   2.4256042e-04  -1.7345618e-02   2.0988555e-02  -1.6089458e-01  -1.1144949e-01  -1.5549314e-03  -2.1067201e-02   4.9876302e-02   7.5704551e-02   6.9497807e-02   1.6693037e-01  -1.6953276e-01  -5.9198398e-02  -1.8258922e-01  -9.0202580e-02   1.1060949e-01
   2.7316149e-03   3.2896141e-03   2.6236166e-02  -9.6510333e-04   2.7055836e-02   1.3990446e-02  -5.6647658e-02  -6.0632500e-02   5.3183369e-02   5.5803504e-02   6.8974604e-02   5.8358198e-02  -2.2234982e-01   4.9450688e-02  -3.1707430e-01   2.1592402e-02  -4.6837428e-02  -2.0154053e-01  -1.6793583e-01  -4.9782949e-02   1.6960047e-01   1.4335088e-01   2.8310946e-01
  -8.8344767e-03   8.6890732e-03  -2.9404946e-02  -8.4968597e-03  -1.1471222e-02   2.1115780e-02   3.9589530e-02   7.3226477e-02   5.7570300e-02   3.1695331e-02   2.2787135e-02  -3.5642216e-03  -2.2600502e-02  -1.4139949e-01   8.2650364e-02   7.6999393e-03  -9.5409703e-02   9.3981087e-02  -4.8171870e-02  -3.3295173e-02   4.3493428e-02  -7.4858836e-02   4.2259213e-02
   7.4301816e-04   4.3252421e-03  -1.0790423e-02  -1.5187896e-02   3.7004860e-02   3.6896095e-02   2.7899376e-02  -1.1547052e-02   1.1015112e-01   6.4444840e-04   4.6798819e-02   1.0623024e-01   9.2042382e-02   7.7879535e-02  -7.9066210e-03   7.4489535e-02   7.3887699e-02  -1.2299258e-02  -6.6440472e-03   6.1365236e-02   8.3817070e-02  -4.4799511e-02  -1.0230568e-01
  -1.5089760e-02   2.3196757e-02   1.7602057e-02   5.5179845e-02  -2.3532820e-03  -4.9889210e-02   7.7456020e-02  -4.4715346e-02  -1.2348552e-01   9.8694958e-02  -4.3154533e-01   3.9142714e-02  -3.9968113e-01  -2.2297761e-01   3.8085517e-01   7.0037298e-02  -2.2432601e-01  -2.5940897e-01  -3.2352104e-01  -1.1888874e-01  -4.3515190e-02  -1.3373644e-01   5.8579932e-03
   6.6758311e-03   1.6275702e-02  -3.4863413e-03   1.1692127e-03  -6.6916225e-02  -1.2495721e-01  -1.5272614e-02   3.2715804e-03  -6.7444923e-02  -8.4260492e-02  -5.0746922e-03   1.8476442e-01   3.4565370e-01   2.5446907e-01  -1.0230158e-01   2.2702884e-02  -8.0331004e-02   2.3344464e-01  -1.9799203e-01   2.5367207e-01   6.3619329e-02   7.4523965e-02   1.1288814e-01
  -2.8480515e-04   3.4727854e-03   1.4011019e-02  -1.4777688e-02  -1.8131605e-02  -4.9437607e-02  -1.2029405e-02  -3.5066188e-02   1.5966658e-02   3.3766883e-02  -8.2359095e-02   6.5583694e-02   6.7669606e-04  -1.3338305e-02   8.1677838e-02   5.9713246e-02   1.3321951e-01  -3.1408939e-01  -6.7501905e-02   1.5792599e-01  -3.8474286e-01  -2.7087441e-01  -1.3691965e-01
  -3.2400113e-04  -9.7803796e-03  -7.7391510e-03   3.1228223e-02   1.3188221e-02   5.3145230e-02   9.2705518e-03  -4.0020496e-03  -2.6264258e-02  -2.4629357e-02   2.9377959e-02  -9.9562146e-02   7.8663677e-02  -1.8785471e-02  -1.2741475e-01   9.8326589e-02  -2.5215422e-01   3.4631019e-01   2.0534736e-01  -1.8596301e-01   5.5665588e-01   1.3694087e-01   1.8338795e-01
  -8.2609233e-04   6.4560505e-03   2.7886263e-03   1.2937457e-02   4.6064473e-03  -1.5103497e-02   2.9632334e-02  -1.2069641e-02   1.2843311e-02   5.9091869e-02  -9.6803566e-02   7.1505459e-02   2.1078902e-03  -4.6813095e-02   2.5096191e-02  -6.6961620e-02   4.8388844e-02  -2.4461134e-01  -2.6247424e-01   1.2890238e-03  -1.9060910e-01  -5.8147390e-02  -1.2310465e-01
  -1.1681055e-05  -1.8961484e-03  -1.0353435e-02   4.6646844e-03  -1.3414028e-02   7.9174929e-03   2.1730966e-02  -3.5508392e-02  -3.9378071e-02   9.4986285e-03  -3.2127440e-02  -1.4659671e-02   4.4967497e-02   1.4819308e-01  -3.7051963e-02   2.3267970e-03  -9.7895653e-02   1.2757224e-01  -1.0853943e-03  -2.2069309e-01   9.1747391e-02   9.8469886e-02   1.0656367e-01
  -1.2240399e-02  -8.6416740e-03  -1.5863319e-02  -1.9416222e-02   3.9768678e-02  -2.4444266e-03   1.9403348e-02  -1.0320873e-02  -1.4197678e-02   2.0137473e-02  -1.3763615e-01  -1.1688903e-01   9.0158558e-03  -4.4520179e-02   6.1738484e-02   9.2500418e-02   9.1553779e-02   1.5861917e-01  -1.6949991e-01  -7.7920356e-02  -2.0572493e-01  -1.1463214e-01   1.0766883e-01
   3.1962108e-03   4.3123726e-03   2.3799893e-02  -1.9843956e-03   2.8865236e-02   4.2280222e-03  -6.9948535e-02  -6.0944215e-02   5.4445672e-02   5.1457642e-02   5.7254338e-02   6.6847200e-02  -2.1544995e-01   1.0978273e-01  -3.2380713e-01   2.7441111e-02  -7.8805494e-02  -1.8688298e-01  -1.4851632e-01  -4.1484320e-02   1.7399324e-01   9.7348016e-02   3.5092407e-01
  -9.3607524e-03   1.0964855e-02  -3.0555641e-02  -1.0052711e-02  -9.7905346e-03   1.8826792e-02   4.9113616e-02   6.8892215e-02   6.2929469e-02   3.4487534e-02   2.5568677e-02  -3.2739084e-03  -1.3469581e-02  -1.4872937e-01   9.0244344e-02   8.4267753e-03  -1.0467811e-01   1.0264856e-01  -8.7252955e-02  -5.2312225e-02   4.5712580e-02  -8.2422965e-02   5.2664029e-02
   6.4846605e-04   1.9128894e-03  -9.6277414e-03  -1.6325765e-02   4.0064256e-02   5.5960570e-02   4.4142021e-02  -6.2464674e-03   1.1128594e-01   1.6335946e-02   8.0904210e-02   9.5236246e-02   7.9033378e-02   1.0409498e-01   1.8871259e-03   8.0465880e-02   1.3656545e-01  -9.4048185e-02   2.5529996e-03  -2.5921954e-03   1.2596626e-01  -4.9244433e-03  -1.3001172e-01
  -1.4624946e-02   2.4151389e-02   1.7832507e-02   5.6770302e-02  -1.4963195e-02  -6.3406236e-02   1.0360932e-01  -6.2133083e-02  -1.2242263e-01   1.0683856e-01  -4.7034097e-01   8.9440774e-02  -3.8797920e-01  -2.5143893e-01   4.3178571e-01   1.2216273e-01  -2.4052006e-01  -2.8452007e-01  -4.0044421e-01  -9.9917373e-02  -1.3585236e-01  -1.5124757e-01   1.3141387e-02
   6.5539555e-03   1.2450868e-02  -2.2473700e-03  -1.2066316e-04  -6.1701779e-02  -1.0385587e-01  -1.1649779e-02   1.3408615e-02  -6.5652033e-02  -6.4041294e-02   1.8772652e-02   1.6020753e-01   3.2087765e-01   2.5319399e-01  -1.0542257e-01  -3.7770516e-03  -4.2876411e-02   1.9158681e-01  -1.7548617e-01   2.0640675e-01   9.2671670e-02   8.9616423e-02   1.0799300e-01
  -1.3837833e-03   2.0822697e-03   1.4421151e-02  -1.7042692e-02  -1.2826699e-02  -5.6870656e-02  -1.4824656e-02  -3.1715552e-02   3.0085098e-02   2.0115116e-02  -6.1628289e-02   6.2900121e-02  -2.8788388e-02   2.2582130e-02   8.2807964e-02   7.6538654e-02   1.9112507e-01  -3.5331379e-01  -1.9724336e-02   2.2709644e-01  -4.3879275e-01  -3.1230171e-01  -1.8742044e-01
  -3.6570299e-04  -1.1152138e-02  -1.1097907e-02   2.7872844e-02   7.3128685e-03   5.1965455e-02   1.2051007e-02  -7.2944907e-03  -2.3686785e-02  -4.1011613e-02   8.7255042e-02  -8.3627615e-02   6.8045282e-02   3.2431478e-02  -1.3405508e-01   1.0271886e-01  -2.4313324e-01   3.5501013e-01   2.4359865e-01  -1.2688181e-01   5.5249802e-01   2.1035844e-01   1.8045520e-01
  -7.8656536e-04   6.9298196e-03   8.2021739e-03   4.7675437e-03  -6.1207017e-03  -1.8151765e-02   9.7942218e-03  -2.9571179e-02   2.0599849e-02   2.5964471e-02  -7.3852343e-02   7.1584947e-02  -9.9829722e-03  -1.5258784e-02   5.2886801e-02  -9.7084970e-02   7.3032866e-02  -2.0004075e-01  -2.5635541e-01  -1.2586160e-02  -2.4314943e-01  -1.3501125e-01  -2.1330742e-01
   6.7278439e-04  -3.6839260e-03  -5.8381991e-03   8.6464422e-04  -2.1659737e-02   1.3482972e-02   5.6181607e-03  -1.8495380e-02  -2.4452932e-02  -1.7462495e-02  -3.0328014e-02  -2.2601800e-02   3.7895473e-02   1.2578984e-01  -5.8329786e-02   5.5771837e-02  -8.7861478e-02   1.1199688e-01  -5.1439131e-02  -2.6257275e-01   7.8923157e-02   1.3037277e-01   1.1538017e-01
  -1.2310699e-02  -9.9840051e-03  -1.4378117e-02  -2.0815701e-02   3.7153278e-02   3.4786942e-03   3.0452498e-02  -2.0337707e-02  -7.3591246e-03   2.0908802e-02  -1.1179420e-01  -1.1079337e-01   2.3236361e-02  -6.9814020e-02   7.6625297e-02   1.0387017e-01   1.1081494e-01   1.4162614e-01  -1.7290970e-01  -8.6673989e-02  -2.3205636e-01  -1.3371982e-01   9.8676853e-02
   3.7779376e-03   5.7963885e-03   1.9785670e-02  -2.8204306e-03   3.1975888e-02  -7.3291314e-03  -8.2325760e-02  -6.0704486e-02   5.5388459e-02   4.5357813e-02   3.9204609e-02   7.6956218e-02  -1.9709420e-01   1.6439958e-01  -3.2129722e-01   3.3648202e-02  -1.1385716e-01  -1.5908047e-01  -1.2715744e-01  -1.9322954e-02   1.7613203e-01   4.2843639e-02   4.0956288e-01
  -8.7539346e-03   1.1061790e-02  -2.7667522e-02  -9.7184819e-03  -6.8531126e-03   1.4480833e-02   5.0280086e-02   5.9489090e-02   5.9141145e-02   3.3725508e-02   2.1592414e-02  -3.1325367e-03  -6.1260180e-03  -1.3651122e-01   8.4782395e-02   1.7145048e-02  -1.0221979e-01   9.6606196e-02  -1.0917204e-01  -6.1076494e-02   3.7887245e-02  -7.3452992e-02   6.0040580e-02
   1.1499654e-03   9.5176995e-04  -9.4906178e-03  -1.6235595e-02   4.4830820e-02   7.0371727e-02   5.3834452e-02  -5.6578036e-03   1.1019104e-01   3.2219503e-02   9.9454338e-02   7.9774800e-02   7.1053939e-02   1.4852406e-01   2.6136736e-02   8.9801581e-02   1.7660220e-01  -1.5214849e-01   1.5904000e-02  -6.8743286e-02   1.5558159e-01   1.4366144e-02  -1.4454433e-01
  -1.4002407e-02   2.5103527e-02   1.7389282e-02   5.8060988e-02  -2.6613782e-02  -7.5190944e-02   1.2862414e-01  -7.7737132e-02  -1.2124482e-01   1.1583850e-01  -5.0534066e-01   1.3582390e-01  -3.7073025e-01  -2.6983832e-01   4.8151668e-01   1.7526292e-01  -2.5381225e-01  -3.0607075e-01  -4.6805082e-01  -8.4187292e-02  -2.1795214e-01  -1.7008045e-01   2.2078540e-02
   6.2044082e-03   7.7715009e-03  -1.6103865e-04  -2.8064945e-03  -5.6250728e-02  -7.8105458e-02  -4.8787096e-03   2.4014059e-02  -5.9187450e-02  -4.1550932e-02   5.5053966e-02   1.3639398e-01   2.8517901e-01   2.4965225e-01  -1.1668262e-01  -4.1542828e-02   1.2100678e-02   1.2404134e-01  -1.4901333e-01   1.4888077e-01   1.1519560e-01   1.1818555e-01   9.5775296e-02
  -2.1925327e-03   1.5460851e-03   1.4298600e-02  -1.8029213e-02  -2.9451325e-03  -6.3314618e-02  -1.3010027e-02  -2.4286150e-02   3.7446526e-02   1.0278333e-02  -3.8960108e-02   5.8793720e-02  -5.9570770e-02   4.2236441e-02   8.5606029e-02   1.0381482e-01   2.3636087e-01  -3.8657096e-01   2.9614429e-02   2.8915268e-01  -4.7116278e-01  -3.5195045e-01  -2.3119838e-01
  -2.7550658e-05  -9.5271475e-03  -1.3781299e-02   2.4136197e-02   4.8404436e-03   4.6274421e-02   1.6706635e-02  -5.3761284e-03  -2.4431243e-02  -4.9342424e-02   1.3687615e-01  -5.8850922e-02   5.3502719e-02   7.0941545e-02  -1.2917521e-01   9.8624610e-02  -2.3390507e-01   3.4703697e-01   2.6429331e-01  -6.9956886e-02   5.3736910e-01   2.6565910e-01   1.6257821e-01
  -5.1895360e-04   7.7928349e-03   1.4605670e-02  -4.1532954e-03  -1.7379128e-02  -2.0136833e-02  -1.2974774e-02  -4.8786007e-02   2.6886611e-02  -1.3640142e-02  -4.5227370e-02   6.9142019e-02  -2.2288324e-02   1.8684889e-02   7.9887802e-02  -1.2426056e-01   9.1445754e-02  -1.3984283e-01  -2.5140952e-01  -3.8026410e-02  -2.9068360e-01  -2.2581202e-01  -3.1206268e-01
   1.3597154e-03  -5.0339474e-03  -1.5301423e-04  -3.0789831e-03  -2.7653951e-02   1.9233120e-02  -1.0952941e-02   1.9540771e-03  -7.8970670e-03  -4.6071341e-02  -3.0669667e-02  -3.0872488e-02   2.5875368e-02   8.6185930e-02  -8.0322708e-02   1.2459470e-01  -7.6687518e-02   9.3056449e-02  -1.1692382e-01  -3.1301525e-01   6.2710930e-02   1.6054945e-01   1.2405354e-01
  -1.1843073e-02  -1.0966104e-02  -1.3600111e-02  -2.1921202e-02   3.2374311e-02   8.2751517e-03   4.0886082e-02  -2.8269306e-02   3.6280964e-03   2.3002643e-02  -8.1829935e-02  -9.2582097e-02   4.2328495e-02  -9.2031703e-02   8.9501511e-02   1.0850126e-01   1.2546407e-01   1.1517234e-01  -1.7870065e-01  -8.3912446e-02  -2.5495147e-01  -1.4417903e-01   8.3679720e-02
   4.4536600e-03   7.5649585e-03   1.4136453e-02  -3.5746202e-03   3.7241502e-02  -1.8899838e-02  -9.2114979e-02  -6.0218498e-02   5.7286658e-02   3.8065164e-02   1.7099438e-02   8.7607034e-02  -1.6623544e-01   2.1062424e-01  -3.0670460e-01   4.1371729e-02  -1.4641136e-01  -1.1936080e-01  -1.0509112e-01   1.5141230e-02   1.7731223e-01  -1.6081321e-02   4.5047966e-01
  -6.8256452e-03   8.3197113e-03  -2.0100069e-02  -7.1178584e-03  -3.1456214e-03   8.7751124e-03   4.0233098e-02   4.6340064e-02   4.5056300e-02   2.8423786e-02   1.0733521e-02  -2.7949790e-03  -2.8929542e-03  -1.0184747e-01   6.2845829e-02   3.3669674e-02  -8.3130710e-02   7.0838599e-02  -1.0350495e-01  -5.4269512e-02   1.9649411e-02  -4.3238123e-02   5.8381612e-02
   2.1962864e-03   1.9306087e-03  -1.0845703e-02  -1.4448764e-02   5.0644777e-02   7.5405075e-02   5.3217485e-02  -1.0548682e-02   1.0498806e-01   4.4301107e-02   9.4822533e-02   5.9915528e-02   7.3056322e-02   2.0736000e-01   6.4924731e-02   1.0276084e-01   1.8052595e-01  -1.6615430e-01   3.2850591e-02  -1.2267379e-01   1.6686833e-01   9.0185923e-04  -1.4007150e-01
  -1.3348813e-02   2.5838600e-02   1.6070964e-02   5.8572854e-02  -3.5288346e-02  -8.3739166e-02   1.5034258e-01  -9.0511770e-02  -1.1988792e-01   1.2527996e-01  -5.3427959e-01   1.7172648e-01  -3.4853312e-01  -2.7902425e-01   5.2661029e-01   2.2310135e-01  -2.6149940e-01  -3.1742001e-01  -5.1998104e-01  -7.4015022e-02  -2.8609059e-01  -1.8921523e-01   3.2604690e-02
   5.6530096e-03   2.3724177e-03   2.1917892e-03  -6.6412265e-03  -5.0767230e-02  -5.0140664e-02   4.7598946e-03   3.3837025e-02  -4.8234053e-02  -1.7973798e-02   9.9364602e-02   1.1483709e-01   2.4048592e-01   2.3974837e-01  -1.3333608e-01  -8.9901413e-02   8.1537363e-02   3.8743140e-02  -1.2427860e-01   8.9929311e-02   1.2761585e-01   1.6316197e-01   7.7214945e-02
  -2.8319608e-03   5.8039466e-04   1.3684622e-02  -1.7267542e-02   1.0941971e-02  -6.6910903e-02  -6.4699272e-03  -1.5392657e-02   3.7211921e-02   3.3983853e-03  -1.2063384e-02   4.7990399e-02  -8.7486045e-02   4.3362086e-02   8.7260032e-02   1.5149804e-01   2.6541099e-01  -4.0361840e-01   8.2654374e-02   3.4323328e-01  -4.7424054e-01  -3.8730971e-01  -2.5897804e-01
   5.2469002e-04  -6.0169241e-03  -1.5212771e-02   2.0816355e-02   6.2824290e-03   3.6898901e-02   2.3626364e-02   6.5707669e-04  -2.8443078e-02  -4.8742934e-02   1.7546972e-01  -3.2407230e-02   3.8156433e-02   8.9947847e-02  -1.1444747e-01   9.9577530e-02  -2.2319252e-01   3.2352334e-01   2.6856772e-01  -1.6777008e-02   5.1520123e-01   2.9486199e-01   1.3821810e-01
  -1.3336274e-04   8.4709472e-03   2.1269322e-02  -1.2800473e-02  -2.7610469e-02  -2.0442050e-02  -3.5952691e-02  -6.7676280e-02   3.0944802e-02  -5.5900141e-02  -1.2120553e-02   6.2163851e-02  -3.3341412e-02   4.9749501e-02   1.0225966e-01  -1.4207510e-01   1.0250497e-01  -6.9363889e-02  -2.4550398e-01  -7.0955685e-02  -3.2670227e-01  -3.2169493e-01  -4.0682438e-01
   1.8664012e-03  -6.4191435e-03   6.2768261e-03  -6.6404736e-03  -3.0181662e-02   2.4477787e-02  -2.4973726e-02   2.2375167e-02   7.9628716e-03  -7.4139157e-02  -3.0840093e-02  -4.0796542e-02   1.0504591e-02   3.3026735e-02  -1.0195776e-01   2.0831657e-01  -6.4905123e-02   7.6249404e-02  -1.8752072e-01  -3.6301197e-01   4.5718661e-02   1.8523088e-01   1.3292238e-01
  -1.0738611e-02  -1.1526764e-02  -1.3854499e-02  -2.2986751e-02   2.6132728e-02   1.2277088e-02   4.8605205e-02  -3.2295546e-02   1.9097090e-02   2.5753652e-02  -4.5387095e-02  -6.3146156e-02   6.7506070e-02  -1.0633026e-01   9.3808074e-02   1.0363232e-01   1.3372872e-01   8.0045276e-02  -1.8445786e-01  -6.9101558e-02  -2.6656045e-01  -1.4273428e-01   6.2846569e-02
   5.2098959e-03   9.3840598e-03   6.8513779e-03  -4.3802149e-03   4.5557629e-02  -2.8348884e-02  -9.7399003e-02  -6.0045471e-02   6.1784699e-02   3.0380000e-02  -5.9122893e-03   9.7840326e-02  -1.2220585e-01   2.4667139e-01  -2.7675776e-01   5.2020105e-02  -1.6976268e-01  -7.0414353e-02  -8.3517403e-02   5.9010470e-02   1.7785416e-01  -7.3910311e-02   4.6426989e-01
  -3.6141959e-03   2.5508315e-03  -8.0143298e-03  -2.3814240e-03   7.4805306e-04   2.9502907e-03   1.8002703e-02   3.1457301e-02   2.1308735e-02   1.8242854e-02  -5.9422080e-03  -2.0788144e-03  -5.8193106e-03  -4.5473123e-02   2.3372925e-02   5.5776446e-02  -4.4946241e-02   2.2763494e-02  -6.3810890e-02  -2.9500791e-02  -7.3369420e-03   9.3172214e-03   4.1441124e-02
   3.6032371e-03   4.9273931e-03  -1.3839346e-02  -1.0794225e-02   5.6495450e-02   6.7790858e-02   3.9911755e-02  -2.0421159e-02   9.4413938e-02   4.8822771e-02   6.3500389e-02   3.6240073e-02   8.8456626e-02   2.7318604e-01   1.1426230e-01   1.1878390e-01   1.4105602e-01  -1.2226222e-01   5.1791785e-02  -1.5015894e-01   1.5759486e-01  -5.1006667e-02  -1.1373974e-01
  -1.2833151e-02   2.5987729e-02   1.3769135e-02   5.7747983e-02  -3.8781952e-02  -8.7276544e-02   1.6665549e-01  -9.9711022e-02  -1.1829162e-01   1.3444580e-01  -5.5444559e-01   1.8945323e-01  -3.2268785e-01  -2.8194010e-01   5.6373434e-01   2.5730864e-01  -2.5941890e-01  -3.0983055e-01  -5.4908779e-01  -7.1409303e-02  -3.3788184e-01  -2.0664503e-01   4.4604755e-02
   4.9209914e-03  -3.5218334e-03   4.1131055e-03  -1.1267153e-02  -4.5536852e-02  -2.3379245e-02   1.6402762e-02   4.1395753e-02  -3.3387892e-02   4.6231914e-03   1.4547923e-01   9.7276380e-02   1.9044650e-01   2.1823839e-01  -1.5232532e-01  -1.4661815e-01   1.5987118e-01  -5.1943621e-02  -1.0831695e-01   4.1791770e-02   1.2626708e-01   2.2646617e-01   5.3064785e-02
  -3.4407854e-03  -2.1687465e-03   1.2612861e-02  -1.4850275e-02   2.6930607e-02  -6.5710708e-02   3.0498926e-03  -7.9094577e-03   3.0482632e-02  -3.1280735e-03   2.2707925e-02   2.6164190e-02  -1.0938541e-01   2.9157842e-02   8.4173001e-02   2.2359413e-01   2.7775415e-01  -3.9391125e-01   1.4121370e-01   3.9001369e-01  -4.4488423e-01  -4.1108566e-01  -2.6406797e-01
   1.0631122e-03  -2.2204088e-03  -1.4763625e-02   1.8233039e-02   1.0809295e-02   2.4878950e-02   3.1434534e-02   9.3690083e-03  -3.3201400e-02  -4.0796279e-02   2.0292594e-01  -1.2115428e-02   2.3340393e-02   8.7510990e-02  -9.3127726e-02   1.1748018e-01  -2.0450066e-01   2.8548769e-01   2.5973735e-01   3.5743661e-02   4.8441791e-01   2.9500527e-01   1.1565211e-01
   2.7017946e-04   8.3738937e-03   2.7128813e-02  -1.9920115e-02  -3.5168534e-02  -1.8568604e-02  -5.6120934e-02  -8.3240040e-02   3.2348368e-02  -9.6127998e-02   2.4034304e-02   4.8860643e-02  -4.1873143e-02   7.2663463e-02   1.1601398e-01  -1.4465693e-01   1.0621841e-01   3.9927389e-03  -2.3385943e-01  -1.0382932e-01  -3.4469899e-01  -4.0942822e-01  -4.8207647e-01
   1.9895354e-03  -8.3233951e-03   1.2750111e-02  -9.4805560e-03  -2.8524055e-02   2.8237110e-02  -3.3679504e-02   3.8505518e-02   2.0903200e-02  -9.9383799e-02  -2.7153160e-02  -5.3226396e-02  -6.8015115e-03  -2.5630346e-02  -1.2151837e-01   3.0126591e-01  -5.1172531e-02   6.7078835e-02  -2.4892811e-01  -3.9878188e-01   2.9120685e-02   2.0077700e-01   1.3986872e-01
  -8.9362640e-03  -1.1692644e-02  -1.5474972e-02  -2.4454859e-02   1.9698092e-02   1.6278047e-02   5.1222775e-02  -3.0469899e-02   3.9212734e-02   2.8053646e-02   7.8999960e-04  -2.5262696e-02   9.9820109e-02  -1.0862985e-01   8.1751302e-02   8.4621782e-02   1.3434689e-01   3.9249141e-02  -1.8591656e-01  -4.2658365e-02  -2.5845603e-01  -1.2617477e-01   3.6537315e-02
   6.0519371e-03   1.1010250e-02  -2.0284172e-03  -5.3680781e-03   5.7796915e-02  -3.3422675e-02  -9.6204600e-02  -6.1013882e-02   7.0773115e-02   2.3309683e-02  -2.6247854e-02   1.0694517e-01  -6.4630353e-02   2.7211945e-01  -2.2756647e-01   6.7244395e-02  -1.7679600e-01  -1.6057279e-02  -6.3573891e-02   1.0814195e-01   1.7680851e-01  -1.2433410e-01   4.4118444e-01
   5.3702443e-04  -5.7445385e-03   7.3269020e-03   3.7542374e-03   4.2212451e-03  -1.4132868e-03  -1.4597804e-02   1.7321648e-02  -9.1678248e-03   3.8553786e-03  -2.6006928e-02  -9.7778715e-04  -1.5945510e-02   2.7041368e-02  -3.0979217e-02   7.9216957e-02   1.0523030e-02  -4.5725088e-02   9.2933978e-03   1.1239083e-02  -3.8967657e-02   7.9672431e-02   4.8960855e-03
   5.0647689e-03   9.5062166e-03  -1.8175077e-02  -5.5483224e-03   6.1067888e-02   4.6844885e-02   1.4067394e-02  -3.3370814e-02   7.8385869e-02   4.3188006e-02   7.9657186e-03   1.0409560e-02   1.1782408e-01   3.3466216e-01   1.6596364e-01   1.3562369e-01   6.0288988e-02  -1.8394883e-02   6.9849478e-02  -1.4027706e-01   1.2963613e-01  -1.3730284e-01  -6.7696839e-02
  -1.2661785e-02   2.5010520e-02   1.0494636e-02   5.4977784e-02  -3.4889303e-02  -8.3811798e-02   1.7568087e-01  -1.0487121e-01  -1.1633503e-01   1.4236652e-01  -5.6268397e-01   1.8062762e-01  -2.9535820e-01  -2.8346466e-01   5.9001116e-01   2.6767134e-01  -2.4157316e-01  -2.7308375e-01  -5.4766698e-01  -7.7826872e-02  -3.7264730e-01  -2.1907163e-01   5.7834400e-02
   4.0135812e-03  -9.6012649e-03   4.8464658e-03  -1.6253332e-02  -4.0924609e-02  -2.0475601e-03   2.8678127e-02   4.5026231e-02  -1.5612069e-02   2.3273261e-02   1.8571659e-01   8.5678644e-02   1.4040839e-01   1.7871024e-01  -1.7077998e-01  -2.0803142e-01   2.3915137e-01  -1.3176872e-01  -1.0932882e-01   1.9583428e-02   1.0775531e-01   3.0883362e-01   2.3672201e-02
  -4.0829919e-03  -7.4890921e-03   1.1054798e-02  -1.1433378e-02   4.1947417e-02  -5.7995168e-02   1.2114692e-02  -4.2463866e-03   1.9753333e-02  -1.2449052e-02   6.7741968e-02  -7.7346726e-03  -1.2291345e-01   7.3674834e-03   7.3014511e-02   3.1369837e-01   2.7346091e-01  -3.4876561e-01   2.0343730e-01   4.2760861e-01  -3.8418604e-01  -4.1229771e-01  -2.4389046e-01
   1.3964496e-03   4.3763244e-04  -1.1829543e-02   1.6126535e-02   1.6251695e-02   1.1071111e-02   3.6885957e-02   1.9775455e-02  -3.3997612e-02  -2.8652660e-02   2.1955647e-01  -3.8017880e-03   8.5124564e-03   6.6478033e-02  -6.8897506e-02   1.5722031e-01  -1.6790122e-01   2.3172246e-01   2.4006470e-01   9.1888802e-02   4.3720427e-01   2.6780781e-01   1.0090627e-01
   6.3628489e-04   7.0871343e-03   3.0788464e-02  -2.4062032e-02  -3.8330890e-02  -1.4236286e-02  -7.0228982e-02  -9.1466457e-02   3.0800667e-02  -1.2862474e-01   6.0910729e-02   2.8298759e-02  -4.6712706e-02   8.2193712e-02   1.1738168e-01  -1.2809391e-01   1.0294926e-01   7.0715331e-02  -2.0983800e-01  -1.2664873e-01  -3.3810391e-01  -4.7186739e-01  -5.2019878e-01
   1.5638032e-03  -1.0912181e-02   1.8269791e-02  -1.1457987e-02  -2.2486262e-02   2.9139672e-02  -3.4671528e-02   4.5829588e-02   2.8631049e-02  -1.1887678e-01  -1.5969209e-02  -6.7426076e-02  -2.4689674e-02  -7.7752389e-02  -1.3601600e-01   3.9033169e-01  -3.3318581e-02   6.9642443e-02  -2.8450592e-01  -4.0425754e-01   1.2657915e-02   2.0307758e-01   1.3958505e-01
  -6.4264654e-03  -1.1646392e-02  -1.8765560e-02  -2.6957090e-02   1.4901125e-02   2.1597400e-02   4.6179833e-02  -2.0864090e-02   6.3957129e-02   2.8284791e-02   6.0946903e-02   1.6071984e-02   1.3990228e-01  -9.6158673e-02   4.4728522e-02   4.4686653e-02   1.2724025e-01  -1.5260283e-03  -1.7643811e-01  -5.7221348e-03  -2.2237832e-01  -9.1288690e-02   5.3406137e-03
   7.0103440e-03   1.2248635e-02  -1.2442761e-02  -6.6206984e-03   7.4746041e-02  -3.2047712e-02  -8.6772231e-02  -6.4208067e-02   8.6206631e-02   1.7999833e-02  -4.0471106e-02   1.1453069e-01   6.7397661e-03   2.8833855e-01  -1.5447821e-01   8.8981132e-02  -1.6095277e-01   3.9428375e-02  -4.6328788e-02   1.5738411e-01   1.7182027e-01  -1.6116420e-01   3.7182768e-01
   4.9256540e-03  -1.5218305e-02   2.3348646e-02   9.9300560e-03   6.7103276e-03  -2.7127064e-03  -5.2335362e-02   6.5559011e-03  -4.0832143e-02  -1.2748154e-02  -4.5613532e-02   3.3588886e-04  -3.2519632e-02   1.0454499e-01  -9.2713875e-02   9.8064903e-02   7.5493394e-02  -1.2618207e-01   1.0541219e-01   6.0643535e-02  -6.8487711e-02   1.5605831e-01  -5.1050914e-02
   6.1864725e-03   1.4678444e-02  -2.3054030e-02   4.6153775e-04   6.2811494e-02   1.5402445e-02  -2.0543306e-02  -4.6175336e-02   5.8515642e-02   2.6970624e-02  -6.2028485e-02  -1.4192253e-02   1.5776111e-01   3.7667510e-01   2.0835425e-01   1.4861129e-01  -4.8015709e-02   1.3137162e-01   8.2631563e-02  -8.8766441e-02   8.8937033e-02  -2.4186265e-01  -1.0687146e-02
