  -9.5119908e-02  -1.6351511e-01
   1.1082933e-01  -7.0234011e-02
  -3.3394681e-03   8.1711860e-02
   2.9325247e-02  -1.3287502e-01
  -3.4925306e-02  -8.6396029e-02
  -3.0571847e-03  -1.6024532e-01
  -5.1541315e-02   2.7580363e-01
  -2.0529161e-02   1.4640690e-01
  -3.7970098e-02   7.4969309e-02
   5.0645290e-02   4.8176098e-02
  -7.7674039e-02  -6.7928684e-02
   7.9589807e-02   2.5018437e-02
   1.1634829e-02  -3.2947703e-02
   1.7497017e-03  -3.9606309e-03
  -1.0875694e-02   1.2170779e-02
   2.6709712e-03   1.8508814e-02
  -3.1825880e-02   1.2791333e-01
  -5.5991388e-03   3.3345709e-02
  -1.0759787e-02   7.2979685e-02
   3.5146742e-02   2.5303837e-03
  -5.9385113e-02  -6.1306339e-02
   5.7082190e-02   9.1225915e-03
   1.9113203e-02  -2.0440899e-02
  -1.2865753e-02   3.2999125e-02
   2.3322267e-03   1.4210565e-02
   8.5402721e-03   4.1441429e-02
  -2.1464702e-02   7.1178583e-02
   3.7978535e-03   1.9728438e-02
   8.9643954e-03   1.1396794e-02
   1.9369527e-02   7.3842389e-03
  -4.3222327e-02  -5.2845609e-02
   3.9741492e-02  -1.0726719e-03
   2.3191203e-02  -1.2894722e-02
  -1.8691012e-02   4.4778578e-02
   5.9318254e-03   9.3440259e-03
   1.1753142e-02   4.3996320e-02
  -1.6077676e-02   3.0630839e-02
   1.0533832e-02   6.8012013e-03
   2.0667626e-02  -2.6691255e-02
   5.7420455e-03   1.2239599e-02
  -2.9491465e-02  -4.2404823e-02
   2.7113172e-02  -5.0364396e-03
   2.4388598e-02  -1.1121254e-02
  -1.8424618e-02   4.0144626e-02
   3.3294729e-03   1.8241467e-03
   1.3027090e-02   3.6231918e-02
  -1.3398773e-02   4.0748674e-03
   1.4905881e-02  -5.7848103e-03
   2.6245285e-02  -4.4100359e-02
  -5.0062576e-03   1.5686563e-02
  -1.8415986e-02  -3.1757902e-02
   1.8563023e-02  -5.0912899e-03
   2.3352968e-02  -1.2816321e-02
  -1.4665376e-02   2.6156211e-02
  -2.5452563e-03  -6.4721847e-03
   1.2989215e-02   2.3890571e-02
  -1.1568518e-02  -1.0462577e-02
   1.7335875e-02  -1.6708404e-02
   2.7413756e-02  -4.6308550e-02
  -1.2508097e-02   1.7555828e-02
  -1.0054869e-02  -2.2293961e-02
   1.3411406e-02  -3.4236253e-03
   2.0711112e-02  -1.5916353e-02
  -9.6234000e-03   8.9385132e-03
  -9.3289092e-03  -1.4132454e-02
   1.2216039e-02   1.1137451e-02
  -9.4510745e-03  -1.6004110e-02
   1.8198893e-02  -2.5265669e-02
   2.5624571e-02  -3.8858819e-02
  -1.6788417e-02   1.7819403e-02
  -4.2817725e-03  -1.4983792e-02
   1.1000979e-02  -1.9514489e-03
   1.6999544e-02  -1.8708445e-02
  -4.9199066e-03  -6.8507937e-03
  -1.5288798e-02  -2.0322244e-02
   1.1217907e-02   4.8083262e-04
  -6.6985995e-03  -1.5889476e-02
   1.7766462e-02  -3.1165295e-02
   2.2006400e-02  -2.6833086e-02
  -1.8206953e-02   1.6645814e-02
  -9.1815968e-04  -1.0237190e-02
   1.0564336e-02  -2.0068428e-03
   1.2810378e-02  -2.0118105e-02
  -1.6045006e-03  -1.8216803e-02
  -1.9456353e-02  -2.4667335e-02
   1.0255668e-02  -6.8896182e-03
  -3.5380859e-03  -1.3135838e-02
   1.6344426e-02  -3.4474130e-02
   1.7275375e-02  -1.4293868e-02
  -1.7305740e-02   1.4340366e-02
   2.6166794e-04  -7.7961219e-03
   1.1276010e-02  -4.0647335e-03
   8.7509288e-03  -1.9958774e-02
  -2.0316863e-04  -2.3729283e-02
  -2.1572414e-02  -2.7023939e-02
   9.3551210e-03  -1.0581251e-02
  -5.0235132e-04  -1.0034212e-02
   1.4294223e-02  -3.5621385e-02
   1.1818578e-02  -3.8501550e-03
  -1.4701819e-02   1.1208423e-02
  -3.0072706e-04  -6.9695003e-03
   1.2540089e-02  -7.9250509e-03
   5.1435789e-03  -1.8680033e-02
  -6.8851182e-04  -2.3385991e-02
  -2.1787580e-02  -2.7469115e-02
   8.5995786e-03  -1.0819997e-02
   1.7439639e-03  -7.8221674e-03
   1.1863982e-02  -3.5151423e-02
   5.9873144e-03   3.2946277e-03
  -1.1086184e-02   7.5394097e-03
  -1.9493987e-03  -7.0712300e-03
   1.4060751e-02  -1.3184277e-02
   1.9660969e-03  -1.6795452e-02
  -2.5837961e-03  -1.8428454e-02
  -2.0467781e-02  -2.6445702e-02
   8.2186655e-03  -8.5102897e-03
   2.6370574e-03  -6.5047372e-03
   9.1723526e-03  -3.3355453e-02
   2.5185389e-04   6.9033824e-03
  -7.1734447e-03   3.6930559e-03
  -4.0344739e-03  -7.4238270e-03
   1.5634316e-02  -1.9201019e-02
  -8.8470125e-04  -1.4910071e-02
  -5.2157400e-03  -1.0788818e-02
  -1.8186996e-02  -2.4504426e-02
   8.3759570e-03  -4.7322214e-03
   2.0311696e-03  -5.3182902e-03
   6.3981095e-03  -3.0447989e-02
  -4.8933076e-03   7.5216076e-03
  -3.5569253e-03  -4.0016092e-05
  -6.2197126e-03  -7.1760754e-03
   1.6817977e-02  -2.4869655e-02
  -3.1907256e-03  -1.3996212e-02
  -8.0254085e-03  -2.3824049e-03
  -1.5813348e-02  -2.1887700e-02
   8.8294916e-03  -9.3307814e-05
   4.4973120e-04  -3.5181157e-03
   4.0309956e-03  -2.6961926e-02
  -9.1711249e-03   6.3894400e-03
  -5.3919316e-04  -3.6481122e-03
  -8.2842446e-03  -6.1616731e-03
   1.7224778e-02  -2.9763231e-02
  -4.7265673e-03  -1.4133576e-02
  -1.0559085e-02   4.8198715e-03
  -1.4162781e-02  -1.9186780e-02
   9.2743155e-03   4.3374150e-03
  -1.2392202e-03  -2.0495003e-04
   2.5419451e-03  -2.2947341e-02
  -1.2347533e-02   4.3319810e-03
   1.7406373e-03  -6.9619268e-03
  -9.7581243e-03  -4.2260470e-03
   1.7010392e-02  -3.3346659e-02
  -5.8103491e-03  -1.5445924e-02
  -1.2249205e-02   9.5203478e-03
  -1.3492155e-02  -1.6673011e-02
   9.8888860e-03   8.0583767e-03
  -2.4156393e-03   4.7808871e-03
   1.8823372e-03  -1.8763017e-02
  -1.3928113e-02   2.1363487e-03
   3.0709731e-03  -9.9918721e-03
  -1.0425125e-02  -1.4506997e-03
   1.6223437e-02  -3.5342252e-02
  -6.5753560e-03  -1.7748013e-02
  -1.2791159e-02   1.1120617e-02
  -1.3900972e-02  -1.4517323e-02
   1.0658078e-02   1.0801040e-02
  -2.5565315e-03   1.0925846e-02
   1.9700061e-03  -1.4796719e-02
  -1.3705968e-02   2.0812479e-04
   3.4201827e-03  -1.2755061e-02
  -1.0244745e-02   1.8646727e-03
   1.4880478e-02  -3.5780902e-02
  -7.0639958e-03  -2.0542161e-02
  -1.2150396e-02   9.7092936e-03
  -1.5266710e-02  -1.2861184e-02
   1.1469267e-02   1.2431459e-02
  -1.4861215e-03   1.7243492e-02
   2.5941199e-03  -1.1356318e-02
  -1.1751666e-02  -1.4595361e-03
   2.8825159e-03  -1.5196630e-02
  -9.3065920e-03   5.3465493e-03
   1.2990163e-02  -3.4875888e-02
  -7.2656004e-03  -2.3214842e-02
  -1.0541175e-02   5.9805025e-03
  -1.7262675e-02  -1.1791832e-02
   1.2161476e-02   1.2977150e-02
   5.4286277e-04   2.2529221e-02
   3.4223967e-03  -8.6657144e-03
  -8.3944078e-03  -3.0941659e-03
   1.6499480e-03  -1.7200483e-02
  -7.7909810e-03   8.6462096e-03
   1.0559478e-02  -3.2927680e-02
  -7.1389103e-03  -2.5183757e-02
  -8.3870018e-03   1.0259563e-03
  -1.9434109e-02  -1.1353747e-02
   1.2562061e-02   1.2576012e-02
   2.9273645e-03   2.5707032e-02
   4.0716530e-03  -6.8229314e-03
  -4.1647711e-03  -4.9425395e-03
  -1.0063716e-05  -1.8607385e-02
  -5.9178904e-03   1.1509289e-02
   7.6138939e-03  -3.0242462e-02
  -6.6491699e-03  -2.6017515e-02
  -6.2619312e-03  -3.8955567e-03
  -2.1292232e-02  -1.1541011e-02
   1.2527953e-02   1.1423957e-02
   4.8971568e-03   2.6154824e-02
   4.1933840e-03  -5.7636101e-03
   3.1097970e-04  -7.0971800e-03
  -1.7895155e-03  -1.9248846e-02
  -3.8981623e-03   1.3805982e-02
   4.2212185e-03  -2.7082673e-02
  -5.8049180e-03  -2.5505044e-02
  -4.8036616e-03  -7.6099817e-03
  -2.2407755e-02  -1.2291583e-02
   1.1993234e-02   9.7265526e-03
   5.7480588e-03   2.3881589e-02
   3.5568745e-03  -5.2611885e-03
   4.4332004e-03  -9.3998737e-03
  -3.3852259e-03  -1.8996342e-02
  -1.8944080e-03   1.5528837e-02
   5.0911760e-04  -2.3646261e-02
  -4.6837208e-03  -2.3676844e-02
  -4.6040155e-03  -9.2462440e-03
  -2.2499216e-02  -1.3475486e-02
   1.1010348e-02   7.6590660e-03
   5.0552387e-03   1.9510557e-02
   2.1089900e-03  -4.9735013e-03
   7.7346604e-03  -1.1445620e-02
  -4.5509309e-03  -1.7811668e-02
   4.2796681e-07   1.6762613e-02
  -3.3343546e-03  -2.0081002e-02
  -3.4349019e-03  -2.0775911e-02
  -6.0760972e-03  -8.3774404e-03
  -2.1497721e-02  -1.4885436e-02
   9.7650124e-03   5.3519215e-03
   2.8092316e-03   1.4099392e-02
  -1.1830849e-06  -4.5132333e-03
   9.9415984e-03  -1.2683490e-02
  -5.1464987e-03  -1.5776209e-02
   1.7648878e-03   1.7639293e-02
  -7.0808289e-03  -1.6520886e-02
  -2.2571043e-03  -1.7191963e-02
  -9.3222075e-03  -5.0948685e-03
  -1.9573045e-02  -1.6252894e-02
   8.5550273e-03   2.9072720e-03
  -5.7741749e-04   8.8395757e-03
  -2.4453363e-03  -3.5352132e-03
   1.0974025e-02  -1.2580780e-02
  -5.1752780e-03  -1.3092943e-02
   3.4370937e-03   1.8294079e-02
  -1.0499396e-02  -1.3123354e-02
  -1.3562509e-03  -1.3384458e-02
  -1.4030699e-02  -1.1362196e-05
  -1.7114334e-02  -1.7285750e-02
   7.7258525e-03   4.4007291e-04
  -4.3975198e-03   4.7263004e-03
  -4.7828649e-03  -1.8213349e-03
   1.0888469e-02  -1.0798615e-02
  -4.7976532e-03  -1.0058235e-02
   5.0985744e-03   1.8833467e-02
  -1.3406413e-02  -1.0101540e-02
  -8.9518368e-04  -9.8088717e-03
  -1.9422570e-02   5.8233307e-03
  -1.4663963e-02  -1.7710695e-02
   7.5769176e-03  -1.8584251e-03
  -7.8573093e-03   2.3302652e-03
  -6.5486431e-03   6.7818586e-04
   9.7913554e-03  -7.3204292e-03
  -4.3081330e-03  -6.9990544e-03
   6.8625366e-03   1.9320484e-02
  -1.5709899e-02  -7.7328154e-03
  -9.5203555e-04  -6.8602961e-03
  -2.4297115e-02   1.1056479e-02
  -1.2819497e-02  -1.7331980e-02
   8.2562905e-03  -3.6720076e-03
  -1.0317247e-02   1.6976259e-03
  -7.3513751e-03   3.8353126e-03
   7.7584149e-03  -2.5029491e-03
  -4.0779053e-03  -4.1995395e-03
   8.8682352e-03   1.9779821e-02
  -1.7437059e-02  -6.3337578e-03
  -1.4978358e-03  -4.8489337e-03
  -2.7188515e-02   1.4214688e-02
  -1.2115576e-02  -1.6084383e-02
   9.6729232e-03  -4.5609841e-03
  -1.1491705e-02   2.3994298e-03
  -6.9585767e-03   7.3629565e-03
   4.7935411e-03   2.9641004e-03
  -4.4693108e-03  -1.8377601e-03
   1.1288794e-02   2.0224817e-02
  -1.8751400e-02  -6.2204074e-03
  -2.3966403e-03  -3.9962336e-03
  -2.6601074e-02   1.3981057e-02
  -1.2886696e-02  -1.4039809e-02
   1.1479790e-02  -4.0194525e-03
  -1.1501609e-02   3.7561486e-03
  -5.3257443e-03   1.0878834e-02
   8.6552093e-04   8.1965112e-03
  -5.7232151e-03   6.3439005e-05
   1.4347306e-02   2.0685373e-02
  -1.9941906e-02  -7.6560407e-03
  -3.4376327e-03  -4.4412051e-03
  -2.1382751e-02   9.4996102e-03
  -1.5152349e-02  -1.1398786e-02
   1.3121437e-02  -1.6203387e-03
  -1.0812354e-02   5.0852359e-03
  -2.5938872e-03   1.3956543e-02
  -3.9887260e-03   1.2285485e-02
  -7.8514973e-03   1.6413846e-03
   1.8331968e-02   2.1236372e-02
  -2.1382395e-02  -1.0796644e-02
  -4.4000422e-03  -6.2582625e-03
  -1.1203774e-02   6.9599391e-04
  -1.8539378e-02  -8.4583510e-03
   1.3951988e-02   2.7697417e-03
  -1.0056773e-02   5.8990249e-03
   9.5031994e-04   1.6148022e-02
  -9.5122203e-03   1.4462192e-02
  -1.0555495e-02   3.1491286e-03
   2.3623103e-02   2.2023600e-02
  -2.3486034e-02  -1.5674485e-02
  -5.1251487e-03  -9.4486914e-03
   3.0105035e-03  -1.1375854e-02
  -2.2241470e-02  -5.5435308e-03
   1.3430428e-02   8.7520482e-03
  -9.7085614e-03   6.0323352e-03
   4.9776220e-03   1.6995989e-02
  -1.5022843e-02   1.4233722e-02
  -1.3165398e-02   4.8893591e-03
   3.0697239e-02   2.3263668e-02
  -2.6634589e-02  -2.2219238e-02
  -5.5940348e-03  -1.3904429e-02
   1.8676886e-02  -2.4286638e-02
  -2.5075900e-02  -2.9514343e-03
   1.1319990e-02   1.5164670e-02
  -9.7935475e-03   5.5916361e-03
   9.2073093e-03   1.6006548e-02
  -1.9250803e-02   1.1426381e-02
  -1.4646700e-02   7.1251076e-03
   4.0094969e-02   2.5232403e-02
  -3.1098440e-02  -3.0308014e-02
  -5.9978776e-03  -1.9363010e-02
   3.1278459e-02  -3.4107572e-02
  -2.5625502e-02  -9.0958467e-04
   7.8682984e-03   1.9931594e-02
  -9.6967321e-03   4.7607486e-03
   1.3481763e-02   1.2598455e-02
  -2.0266859e-02   6.1550072e-03
  -1.3675150e-02   9.9864143e-03
   5.2385051e-02   2.8258218e-02
  -3.6985476e-02  -3.9853000e-02
  -6.7558446e-03  -2.5340241e-02
   3.4380564e-02  -3.5390833e-02
  -2.2424251e-02   4.4889997e-04
   3.9468994e-03   2.0050769e-02
  -8.0592166e-03   3.5624122e-03
   1.7837493e-02   6.0661252e-03
  -1.5489082e-02  -1.2373776e-03
  -8.7405907e-03   1.3410202e-02
   6.8087024e-02   3.2705271e-02
  -4.4191354e-02  -5.0896618e-02
  -8.5095395e-03  -3.1071588e-02
   1.9849782e-02  -2.1347669e-02
  -1.4210609e-02   1.0607279e-03
   1.0923144e-03   1.1747542e-02
  -2.9142130e-03   1.6053577e-03
   2.2514674e-02  -4.4462735e-03
  -1.8474591e-03  -1.0266473e-02
   1.6930371e-03   1.7105906e-02
   8.7566099e-02   3.9018421e-02
  -5.2362822e-02  -6.3614253e-02
  -1.2093642e-02  -3.5576042e-02
  -2.1665827e-02   1.5810514e-02
  -1.9685165e-04   9.3255925e-04
   1.4552598e-03  -9.1159906e-03
   7.9926368e-03  -2.1382661e-03
   2.7926893e-02  -2.0006025e-02
   2.3922811e-02  -2.0313212e-02
   1.9006649e-02   2.0517441e-02
   1.1109527e-01   5.0180565e-02
  -6.0705210e-02  -7.5231997e-02
  -1.8675981e-02  -4.1220472e-02
  -9.9840633e-02   8.6000307e-02
   1.9843039e-02   2.4352966e-03
   7.8711650e-03  -4.3220414e-02
   2.6685898e-02  -1.1394166e-02
   3.4453581e-02  -4.4517574e-02
   6.5078009e-02  -2.8289089e-02
   4.4197392e-02   2.1511727e-02
