  -2.9276400e-02  -2.5651723e-02
  -2.8976477e-02  -3.5248346e-02
   2.2424161e-02   4.1517421e-02
   4.7486427e-02   1.2140389e-02
   4.3033708e-02   1.7389577e-02
   1.6329576e-03   3.8836735e-02
  -7.4174855e-02  -2.2681439e-03
  -6.2102614e-02  -4.7521853e-02
  -4.8793152e-03   6.9807099e-02
   7.1839917e-02   4.6666871e-03
  -2.0369232e-02  -2.0381166e-02
  -1.9987229e-02  -2.1572575e-02
   1.6049177e-02   2.4548216e-02
   4.0622940e-02   1.8096589e-02
   1.3212724e-02   3.5394422e-03
   3.2527077e-03   2.9130461e-02
  -4.3600721e-02  -1.3507098e-02
  -5.3431055e-02  -3.4239908e-02
  -7.4162908e-03   3.4077472e-02
   5.9895038e-02  -2.9607291e-03
  -1.4472030e-02  -1.4973483e-02
  -1.1219088e-02  -1.0825608e-02
   9.9478824e-03   1.1216100e-02
   3.5225317e-02   2.2662337e-02
  -6.3495572e-03  -6.3518557e-03
   4.7373325e-03   2.2317596e-02
  -1.9139658e-02  -2.1288888e-02
  -4.2135311e-02  -2.3948036e-02
  -9.0567817e-03   5.4858776e-03
   5.0579774e-02  -5.3751247e-03
  -1.0631371e-02  -9.8144911e-03
  -3.2316239e-03  -2.9085254e-03
   4.6337813e-03   1.4859027e-03
   3.0994315e-02   2.5842923e-02
  -1.7178480e-02  -1.2432756e-02
   6.1873726e-03   1.8111449e-02
  -6.3318149e-04  -2.5388451e-02
  -3.0237276e-02  -1.5662139e-02
  -1.0021546e-02  -1.5557822e-02
   4.2874691e-02  -3.7241647e-03
  -8.0740668e-03  -5.2089166e-03
   3.5899923e-03   2.3947185e-03
   4.4676245e-04  -4.8595246e-03
   2.7610469e-02   2.7711500e-02
  -2.1167221e-02  -1.5163014e-02
   7.6903627e-03   1.6112521e-02
   1.2275798e-02  -2.6029993e-02
  -1.9536753e-02  -8.9737558e-03
  -1.0520700e-02  -2.9234708e-02
   3.5819097e-02   5.8911769e-04
  -6.2372855e-03  -1.3749306e-03
   9.0359975e-03   5.4014773e-03
  -2.4430686e-03  -8.1999417e-03
   2.4765603e-02   2.8398844e-02
  -2.0360026e-02  -1.5236022e-02
   9.3102579e-03   1.5862042e-02
   2.0164686e-02  -2.3780003e-02
  -1.1275971e-02  -3.9309210e-03
  -1.0719341e-02  -3.6223320e-02
   2.8724548e-02   6.0550462e-03
  -4.7710720e-03   1.5541734e-03
   1.3058023e-02   6.5077716e-03
  -4.0188586e-03  -9.0454344e-03
   2.2191922e-02   2.8081337e-02
  -1.6738619e-02  -1.3482288e-02
   1.1077930e-02   1.6891454e-02
   2.3804905e-02  -1.9412488e-02
  -5.9643637e-03  -8.0871845e-04
  -1.0721241e-02  -3.7569754e-02
   2.1305448e-02   1.1257662e-02
  -3.5142497e-03   3.5232959e-03
   1.5741380e-02   6.1611299e-03
  -4.3908004e-03  -7.9935266e-03
   1.9684681e-02   2.6967944e-02
  -1.2036699e-02  -1.0764860e-02
   1.2984484e-02   1.8762865e-02
   2.4095157e-02  -1.3771752e-02
  -3.3930443e-03   1.5518497e-04
  -1.0570122e-02  -3.4540479e-02
   1.3697869e-02   1.5079723e-02
  -2.4497511e-03   4.5467180e-03
   1.7267788e-02   4.8311952e-03
  -3.7633031e-03  -5.6795965e-03
   1.7115006e-02   2.5287523e-02
  -7.6031449e-03  -7.8791807e-03
   1.4978669e-02   2.1097233e-02
   2.1971093e-02  -7.6555745e-03
  -2.8187976e-03  -1.0164949e-03
  -1.0264418e-02  -2.8477330e-02
   6.3680033e-03   1.6863438e-02
  -1.6484968e-03   4.6995576e-03
   1.7874263e-02   2.9798994e-03
  -2.3989932e-03  -2.7253088e-03
   1.4431582e-02   2.3277562e-02
  -4.3277649e-03  -5.4689575e-03
   1.6969780e-02   2.3588775e-02
   1.8312798e-02  -1.7346613e-03
  -3.2530815e-03  -3.9206365e-03
  -9.7789939e-03  -2.0671440e-02
  -5.7523126e-05   1.6486332e-02
  -1.2114066e-03   4.1104509e-03
   1.7813638e-02   1.0325761e-03
  -5.8369777e-04   3.1033419e-04
   1.1651790e-02   2.1174955e-02
  -2.6341242e-03  -3.9672465e-03
   1.8836054e-02   2.6006781e-02
   1.3870031e-02   3.4856502e-03
  -3.7682587e-03  -7.7883525e-03
  -9.0867347e-03  -1.2267830e-02
  -4.9872693e-03   1.4329986e-02
  -1.2182639e-03   2.9549934e-03
   1.7321173e-02  -6.4894736e-04
   1.4042982e-03   2.9726913e-03
   8.8443937e-03   1.9208534e-02
  -2.5325556e-03  -3.5696316e-03
   2.0437369e-02   2.8188247e-02
   9.2186917e-03   7.6656660e-03
  -3.7383594e-03  -1.1627316e-02
  -8.1745004e-03  -4.2058654e-03
  -8.0321706e-03   1.1145146e-02
  -1.6894996e-03   1.4478618e-03
   1.6590429e-02  -1.7901327e-03
   3.3185971e-03   4.9417400e-03
   6.1071032e-03   1.7592112e-02
  -3.7187021e-03  -4.2419053e-03
   2.1631307e-02   3.0025341e-02
   4.7531481e-03   1.0605719e-02
  -2.9589456e-03  -1.4448186e-02
  -7.0506856e-03   2.8057323e-03
  -9.1031904e-03   7.8429742e-03
  -2.5645054e-03  -1.6890389e-04
   1.5759739e-02  -2.2225274e-03
   4.9611973e-03   6.0479479e-03
   3.5426740e-03   1.6516502e-02
  -5.6990091e-03  -5.7589927e-03
   2.2291380e-02   3.1451556e-02
   7.1019025e-04   1.2210570e-02
  -1.6291130e-03  -1.5507733e-02
  -5.7446724e-03   8.2858271e-03
  -8.4207603e-03   5.2613550e-03
  -3.6985020e-03  -1.6427794e-03
   1.4909226e-02  -1.8952230e-03
   6.1905368e-03   6.2723610e-03
   1.2365840e-03   1.6139530e-02
  -7.9226878e-03  -7.7668717e-03
   2.2325388e-02   3.2429650e-02
  -2.7863502e-03   1.2458885e-02
  -2.1752386e-04  -1.4496847e-02
  -4.3007975e-03   1.1959373e-02
  -6.4425901e-03   3.9620207e-03
  -4.8781142e-03  -2.7322979e-03
   1.4067779e-02  -8.7693842e-04
   6.9221282e-03   5.7308283e-03
  -7.6147439e-04   1.6574116e-02
  -9.8996820e-03  -9.8562336e-03
   2.1691694e-02   3.2943001e-02
  -5.6746625e-03   1.1388060e-02
   7.3640137e-04  -1.1617713e-02
  -2.7703597e-03   1.3727575e-02
  -3.7376654e-03   4.1065144e-03
  -5.8523351e-03  -3.2317128e-03
   1.3228987e-02   6.5241019e-04
   7.1239934e-03   4.6438999e-03
  -2.4497268e-03   1.7874964e-02
  -1.1288221e-02  -1.1635452e-02
   2.0411290e-02   3.2990703e-02
  -7.9117077e-03   9.0974843e-03
   8.2246545e-04  -7.5261836e-03
  -1.2048528e-03   1.3637939e-02
  -8.4604493e-04   5.4388241e-03
  -6.3731909e-03  -2.9961648e-03
   1.2373273e-02   2.4212654e-03
   6.8093402e-03   3.2958135e-03
  -3.8768928e-03   2.0024574e-02
  -1.1942581e-02  -1.2791537e-02
   1.8573772e-02   3.2585996e-02
  -9.4479255e-03   5.7656811e-03
  -9.6885934e-05  -3.1532085e-03
   3.4728498e-04   1.1859208e-02
   1.8358438e-03   7.3754291e-03
  -6.2400614e-03  -1.9637521e-03
   1.1490436e-02   4.0978043e-03
   6.0280147e-03   1.9878992e-03
  -5.1335506e-03   2.2920394e-02
  -1.1918629e-02  -1.3131282e-02
   1.6336312e-02   3.1756844e-02
  -1.0224146e-02   1.6708772e-03
  -1.8368840e-03   5.4740813e-04
   1.8392590e-03   8.6625986e-03
   4.1148974e-03   9.1768229e-03
  -5.3411518e-03  -1.7113642e-04
   1.0595765e-02   5.3329463e-03
   4.8576663e-03   9.9249605e-04
  -6.3341834e-03   2.6366883e-02
  -1.1440099e-02  -1.2599669e-02
   1.3915576e-02   3.0547171e-02
  -1.0188241e-02  -2.7980173e-03
  -3.9437231e-03   2.8576951e-03
   3.2203512e-03   4.4075230e-03
   5.9928922e-03   1.0155250e-02
  -3.6852906e-03   2.2399003e-03
   9.7352855e-03   5.8120861e-03
   3.3954746e-03   5.1292487e-04
  -7.5945423e-03   3.0077398e-02
  -1.0833179e-02  -1.1276999e-02
   1.1572559e-02   2.9017497e-02
  -9.3231951e-03  -7.1515768e-03
  -5.8314007e-03   3.4907750e-03
   4.4286884e-03  -4.7222273e-04
   7.5956475e-03   9.8652747e-03
  -1.4182113e-03   5.0269605e-03
   8.9800625e-03   5.3090092e-03
   1.7516605e-03   6.5358356e-04
  -9.0091063e-03   3.3689754e-02
  -1.0441345e-02  -9.3587695e-03
   9.5905676e-03   2.7244158e-02
  -7.6750063e-03  -1.0837580e-02
  -6.9583284e-03   2.6666152e-03
   5.3861325e-03  -5.4864561e-03
   9.0643238e-03   8.2271987e-03
   1.1817131e-03   7.8633738e-03
   8.4123299e-03   3.7332937e-03
   4.4989167e-05   1.4032424e-03
  -1.0632194e-02   3.6796788e-02
  -1.0536807e-02  -7.1224104e-03
   8.2474427e-03   2.5316637e-02
  -5.3693967e-03  -1.3305020e-02
  -6.9865172e-03   1.0400415e-03
   5.9990527e-03  -1.0114576e-02
   1.0447014e-02   5.5478817e-03
   3.7297427e-03   1.0366991e-02
   8.1066831e-03   1.1628321e-03
  -1.6009702e-03   2.6337876e-03
  -1.2465852e-02   3.8990848e-02
  -1.1245084e-02  -4.8854004e-03
   7.7840651e-03   2.3333006e-02
  -2.6106983e-03  -1.4084948e-02
  -5.8718988e-03  -5.0819996e-04
   6.1674635e-03  -1.3841357e-02
   1.1629637e-02   2.4289572e-03
   5.7815424e-03   1.2141043e-02
   8.1094503e-03  -2.1449403e-03
  -3.0619919e-03   4.1150649e-03
  -1.4457011e-02   3.9918688e-02
  -1.2495878e-02  -2.9601995e-03
   8.3717061e-03   2.1394122e-02
   3.3752459e-04  -1.2872462e-02
  -3.8588031e-03  -1.1647903e-03
   5.8029051e-03  -1.6201962e-02
   1.2331667e-02  -4.1595211e-04
   6.8980562e-03   1.2824148e-02
   8.4194942e-03  -5.7667217e-03
  -4.2186388e-03   5.5449311e-03
  -1.6505195e-02   3.9341243e-02
  -1.4010946e-02  -1.6108116e-03
   1.0080988e-02   1.9597778e-02
   3.1846859e-03  -9.5919172e-03
  -1.3841679e-03  -4.7803160e-04
   4.8533021e-03  -1.6833215e-02
   1.2170890e-02  -2.3850929e-03
   6.7229018e-03   1.2145089e-02
   8.9742614e-03  -9.1525652e-03
  -4.9633159e-03   6.5922474e-03
  -1.8480394e-02   3.7191381e-02
  -1.5336163e-02  -1.0147432e-03
   1.2855798e-02   1.8033797e-02
   5.6490157e-03  -4.4301672e-03
   1.0738276e-03   1.4397147e-03
   3.3313254e-03  -1.5526476e-02
   1.0779936e-02  -3.1878413e-03
   5.0626756e-03   9.9773571e-03
   9.6453191e-03  -1.1688715e-02
  -5.2084250e-03   6.9493176e-03
  -2.0248838e-02   3.3622321e-02
  -1.5919539e-02  -1.2334921e-03
   1.6495885e-02   1.6780399e-02
   7.4870753e-03   2.1698964e-03
   3.1508869e-03   3.8763672e-03
   1.3416883e-03  -1.2276760e-02
   7.9417387e-03  -2.9559348e-03
   1.9576824e-03   6.3880047e-03
   1.0246645e-02  -1.2779781e-02
  -4.8951828e-03   6.3897543e-03
  -2.1702116e-02   2.9039231e-02
  -1.5229931e-02  -2.1949105e-03
   2.0650552e-02   1.5902155e-02
   8.5091912e-03   9.5530003e-03
   4.7028640e-03   5.6850119e-03
  -8.9734582e-04  -7.3233331e-03
   3.7051781e-03  -2.2239835e-03
  -2.2701692e-03   1.6752008e-03
   1.0556018e-02  -1.1943422e-02
  -4.0033821e-03   4.8278775e-03
  -2.2783186e-02   2.4106855e-02
  -1.2902783e-02  -3.6918069e-03
   2.4824216e-02   1.5449858e-02
   8.5772081e-03   1.6919815e-02
   5.8255009e-03   5.6282578e-03
  -3.0420705e-03  -1.1784310e-03
  -1.5527565e-03  -1.7711557e-03
  -7.0030896e-03  -3.6118230e-03
   1.0345753e-02  -8.9078667e-03
  -2.5623196e-03   2.3755274e-03
  -2.3503721e-02   1.9728126e-02
  -8.8930732e-03  -5.4008351e-03
   2.8394995e-02   1.5461475e-02
   7.5859243e-03   2.3400768e-02
   6.7754895e-03   2.8274215e-03
  -4.6233885e-03   5.3578037e-03
  -7.1380316e-03  -2.3550987e-03
  -1.1352860e-02  -8.6766679e-03
   9.4163685e-03  -3.7008319e-03
  -6.6211111e-04  -6.0874861e-04
  -2.3950899e-02   1.6992969e-02
  -3.6132017e-03  -6.9234294e-03
   3.0647836e-02   1.5962246e-02
   5.4342617e-03   2.8114932e-02
   7.8089831e-03  -2.7951464e-03
  -5.0595318e-03   1.1197392e-02
  -1.2125400e-02  -4.4018944e-03
  -1.4227882e-02  -1.2507375e-02
   7.6274963e-03   3.2811215e-03
   1.5363885e-03  -3.4841552e-03
  -2.4284973e-02   1.7100724e-02
   1.9669313e-03  -7.8474398e-03
   3.0821871e-02   1.6962231e-02
   1.9955932e-03   3.0198372e-02
   8.9781768e-03  -1.0202814e-02
  -3.6805342e-03   1.4981069e-02
  -1.5501873e-02  -7.7338674e-03
  -1.4439375e-02  -1.3935719e-02
   4.9232288e-03   1.1231391e-02
   3.7950076e-03  -5.3118348e-03
  -2.4729659e-02   2.1262432e-02
   6.2793888e-03  -7.8249114e-03
   2.8169161e-02   1.8450485e-02
  -2.9024031e-03   2.8796016e-02
   9.9436369e-03  -1.7164153e-02
   2.3768223e-04   1.5113693e-02
  -1.6333982e-02  -1.1416508e-02
  -1.0838727e-02  -1.1720200e-02
   1.3511127e-03   1.8926260e-02
   5.7956008e-03  -4.8633281e-03
  -2.5557179e-02   3.0591134e-02
   7.1940851e-03  -6.6578550e-03
   2.2019643e-02   2.0386297e-02
  -9.4804703e-03   2.3023612e-02
   9.8643452e-03  -2.0463263e-02
   7.4321741e-03   9.8217987e-03
  -1.3914931e-02  -1.3785343e-02
  -2.4740259e-03  -4.6444018e-03
  -2.9259813e-03   2.4755936e-02
   7.1405766e-03  -6.5562856e-04
  -2.7070274e-02   4.5990064e-02
   2.1410948e-03  -4.3816818e-03
   1.1845870e-02   2.2688956e-02
  -1.7990858e-02   1.1918492e-02
   7.4121389e-03  -1.6392706e-02
   1.8607400e-02  -2.7633237e-03
  -7.8508985e-03  -1.2674496e-02
   1.1251722e-02   8.3795464e-03
  -7.6260255e-03   2.6795556e-02
   7.3561825e-03   8.9867046e-03
  -2.9583449e-02   6.8049283e-02
  -1.1682179e-02  -1.3338065e-03
  -2.6790895e-03   2.5228323e-02
  -2.8685197e-02  -5.5940063e-03
   9.2456695e-04  -1.4481856e-03
   3.4387429e-02  -2.4494840e-02
   1.9372019e-03  -5.8185460e-03
   3.0442987e-02   2.8212843e-02
  -1.2352557e-02   2.2915359e-02
   5.8982674e-03   2.5844140e-02
  -3.3405206e-02   9.6961216e-02
  -3.7037845e-02   1.8082970e-03
  -2.1637147e-02   2.7818983e-02
  -4.1776771e-02  -3.0690653e-02
  -1.1328485e-02   2.6914571e-02
   5.5267820e-02  -5.7072357e-02
   1.5296036e-02   8.6482795e-03
   5.4615650e-02   5.5408481e-02
  -1.6606919e-02   1.0925454e-02
   2.1605831e-03   5.1693297e-02
  -3.8823067e-02   1.3246510e-01
  -7.6341498e-02   4.0355910e-03
  -4.4839388e-02   3.0220125e-02
  -5.7408933e-02  -6.4576476e-02
  -3.0821881e-02   6.9626907e-02
   8.1569485e-02  -1.0188144e-01
   3.1981953e-02   3.1702884e-02
