  -7.3480063e-03  -4.7641440e-02
  -7.1394888e-04   7.1840102e-02
  -4.6020541e-02   3.2118106e-03
   3.3575727e-02   4.0577032e-03
   7.6814730e-02  -6.7964125e-02
  -4.1971522e-02  -5.2725717e-02
  -7.7943080e-02   2.7727566e-01
  -1.5695805e-01  -1.5782092e-01
  -4.0791579e-03  -8.9048565e-02
  -2.4235803e-02   3.6746804e-02
  -8.4478046e-03  -2.8349730e-02
  -5.6051600e-03   4.7936239e-02
  -2.2440077e-02   6.9678521e-03
   1.6406821e-02   1.2160397e-03
   2.4610529e-02  -3.1117859e-02
   1.0995943e-03  -1.4058412e-02
  -5.7265152e-02   1.9733661e-01
  -1.0468746e-01  -1.1095313e-01
  -3.8783846e-03  -4.6793928e-02
  -9.2917699e-03   2.5335027e-02
  -1.0683189e-02  -1.3578354e-02
  -6.9482653e-03   2.8094464e-02
  -6.8656310e-03   8.4201974e-03
   3.4563937e-03  -3.7141163e-03
  -5.5407281e-03  -5.1859107e-03
   2.1168889e-02   7.4055357e-03
  -3.7423794e-02   1.2586997e-01
  -5.9658147e-02  -7.2162009e-02
  -1.8128880e-03  -1.8048152e-02
   2.4985055e-03   1.4972924e-02
  -1.2609877e-02  -3.2146332e-03
  -6.0112535e-03   1.2176336e-02
   1.9796708e-03   8.2022255e-03
  -4.9681535e-03  -8.9041468e-03
  -1.8744898e-02   1.0375866e-02
   2.4850631e-02   1.6104603e-02
  -2.0057195e-02   6.4456264e-02
  -2.3851878e-02  -4.1878661e-02
   8.5159481e-04  -4.6766352e-04
   1.0688190e-02   6.0316988e-03
  -1.3346896e-02   3.0197725e-03
  -3.9583052e-03  -7.9234764e-05
   5.5749214e-03   6.9403600e-03
  -9.1077191e-03  -1.3059710e-02
  -2.0337378e-02   1.6976676e-02
   1.8746966e-02   1.6341032e-02
  -6.3819593e-03   1.4336643e-02
   1.6077142e-03  -1.9653961e-02
   3.1513954e-03   8.6337350e-03
   1.5149940e-02  -1.0918951e-03
  -1.2537042e-02   5.5791919e-03
  -1.7023455e-03  -9.0225022e-03
   5.4260540e-03   5.2070724e-03
  -9.6505262e-03  -1.5416079e-02
  -1.5201171e-02   1.6615271e-02
   8.5882908e-03   1.1883648e-02
   2.9794160e-03  -2.3718979e-02
   1.6732000e-02  -4.3070096e-03
   4.4839590e-03   1.1951817e-02
   1.6146729e-02  -6.0294029e-03
  -1.0257155e-02   5.0809852e-03
   1.4755692e-04  -1.5067117e-02
   2.9422605e-03   3.4876409e-03
  -7.5792817e-03  -1.5692472e-02
  -7.3226936e-03   1.1558056e-02
  -1.3076235e-03   5.7138852e-03
   8.0729573e-03  -4.9542173e-02
   2.2712510e-02   5.7700401e-03
   4.6213438e-03   1.1896585e-02
   1.4320877e-02  -8.5266674e-03
  -6.8961189e-03   2.2708637e-03
   1.2727424e-03  -1.8663578e-02
  -6.4997370e-04   2.1548979e-03
  -3.9970167e-03  -1.4013289e-02
   4.2932600e-04   4.0310351e-03
  -8.2621660e-03  -8.5685715e-05
   9.5587704e-03  -6.3659877e-02
   2.1717060e-02   1.2234605e-02
   3.6677391e-03   1.0373808e-02
   1.0602170e-02  -8.5349069e-03
  -3.0194876e-03  -2.0285938e-03
   1.5916732e-03  -2.0268875e-02
  -4.3643568e-03   1.4510476e-03
   4.0570802e-05  -1.0804400e-02
   6.3314131e-03  -4.0278185e-03
  -1.1181826e-02  -4.3134109e-03
   8.5342359e-03  -6.7315632e-02
   1.6479787e-02   1.6444485e-02
   1.9665381e-03   8.6701149e-03
   6.0540273e-03  -6.2764874e-03
   7.6138535e-04  -6.9789340e-03
   1.1885507e-03  -2.0314584e-02
  -7.4882155e-03   1.4789517e-03
   3.6628148e-03  -6.6744934e-03
   9.6809279e-03  -1.1130089e-02
  -1.0283641e-02  -6.5261395e-03
   6.2746866e-03  -6.2393195e-02
   9.7783372e-03   1.9226345e-02
  -2.3691381e-05   7.4497517e-03
   1.6910599e-03  -2.2605723e-03
   3.9007433e-03  -1.1788368e-02
   2.4038831e-04  -1.9178900e-02
  -9.5930609e-03   2.2063802e-03
   6.2748505e-03  -2.2939323e-03
   1.0568653e-02  -1.6308480e-02
  -6.6790618e-03  -6.8468477e-03
   3.9530522e-03  -5.1238556e-02
   3.9193095e-03   2.0815992e-02
  -1.8568432e-03   6.8504237e-03
  -1.6915083e-03   2.7633012e-03
   5.9996216e-03  -1.5769127e-02
  -1.0461679e-03  -1.7168419e-02
  -1.0522502e-02   3.4847268e-03
   7.5930635e-03   1.7152124e-03
   9.5993160e-03  -1.9110114e-02
  -1.9026603e-03  -5.7424951e-03
   2.4051275e-03  -3.6401276e-02
   3.5141799e-04   2.0975881e-02
  -3.2024656e-03   6.6477556e-03
  -3.6383416e-03   7.9093561e-03
   6.8509703e-03  -1.8385198e-02
  -2.4818878e-03  -1.4513463e-02
  -1.0358550e-02   5.0797137e-03
   7.6265374e-03   4.8654607e-03
   7.6078271e-03  -1.9530377e-02
   2.5322802e-03  -3.8111213e-03
   1.9948025e-03  -2.0337577e-02
  -5.0540946e-04   1.9246913e-02
  -3.9035477e-03   6.4473637e-03
  -4.0776943e-03   1.2297769e-02
   6.4479085e-03  -1.9287088e-02
  -3.9238433e-03  -1.1377359e-02
  -9.3691141e-03   6.7104804e-03
   6.6148196e-03   6.8579387e-03
   5.4117296e-03  -1.7908393e-02
   5.4837170e-03  -1.6095009e-03
   2.6069247e-03  -5.1296741e-03
   8.1931183e-04   1.5256959e-02
  -3.9807240e-03   5.8625067e-03
  -3.2800529e-03   1.5205016e-02
   4.9592381e-03  -1.8331210e-02
  -5.2876479e-03  -7.8767232e-03
  -7.9415301e-03   8.0941364e-03
   4.9385239e-03   7.6011855e-03
   3.6297322e-03  -1.4806984e-02
   6.3908119e-03   4.5779397e-04
   3.7615767e-03   7.7246238e-03
   3.1470073e-03   8.9953609e-03
  -3.5895004e-03   4.6423544e-03
  -1.7444643e-03   1.6189405e-02
   2.6807218e-03  -1.5582706e-02
  -6.5465290e-03  -4.1077055e-03
  -6.5092599e-03   8.9904122e-03
   3.0216491e-03   7.1980073e-03
   2.5837370e-03  -1.0897501e-02
   5.3249925e-03   2.1798322e-03
   4.8118246e-03   1.7411028e-02
   5.0861487e-03   9.7241079e-04
  -2.9493161e-03   2.7297563e-03
  -4.3133788e-05   1.5163352e-02
  -2.6268260e-05  -1.1301907e-02
  -7.7212031e-03  -1.7270642e-04
  -5.4802384e-03   9.2384680e-03
   1.2433384e-03   5.9077588e-03
   2.2878316e-03  -6.8622699e-03
   2.8915319e-03   3.5150594e-03
   5.1666856e-03   2.3768561e-02
   5.4858911e-03  -7.7868461e-03
  -2.2690053e-03   2.4604449e-04
   1.3354681e-03   1.2395610e-02
  -2.7959679e-03  -5.9156783e-03
  -8.8643585e-03   3.7975739e-03
  -5.1746933e-03   8.7793272e-03
  -1.2672266e-04   4.0918587e-03
   2.5128985e-03  -3.3182862e-03
   1.7148404e-05   4.5193489e-03
   4.4777555e-03   2.7141422e-02
   3.7883177e-03  -1.5919064e-02
  -1.6910753e-03  -2.5803642e-03
   2.1058111e-03   8.4433528e-03
  -5.3079708e-03   2.4818225e-05
  -1.0043313e-02   7.6310253e-03
  -5.7784229e-03   7.6609662e-03
  -9.6009867e-04   2.1504686e-03
   2.9027281e-03  -7.6305337e-04
  -2.3218357e-03   5.2566019e-03
   2.7413771e-03   2.8153314e-02
   1.9079862e-04  -2.2023520e-02
  -1.2686021e-03  -5.5103204e-03
   2.2387605e-03   4.0315081e-03
  -7.3179551e-03   5.8964149e-03
  -1.1324165e-02   1.1112784e-02
  -7.3155933e-03   6.0260483e-03
  -1.2658669e-03   4.5852323e-04
   3.1093449e-03   4.5868659e-04
  -3.3668064e-03   5.7233315e-03
   2.9351144e-04   2.7463796e-02
  -4.4177559e-03  -2.5003505e-02
  -9.7681070e-04  -8.3789400e-03
   1.9391332e-03  -9.0470774e-05
  -8.6667097e-03   1.1061322e-02
  -1.2759798e-02   1.3996843e-02
  -9.6432587e-03   4.0852294e-03
  -1.1558186e-03  -6.9168837e-04
   2.9131578e-03   1.7216238e-04
  -2.7787408e-03   5.8110664e-03
  -2.2958012e-03   2.5569443e-02
  -8.7229788e-03  -2.4350739e-02
  -7.5038344e-04  -1.1138079e-02
   1.5571191e-03  -3.2800118e-03
  -9.2697374e-03   1.4924606e-02
  -1.4382287e-02   1.6029968e-02
  -1.2467749e-02   2.0811226e-03
  -7.8928561e-04  -1.1354178e-03
   2.2988230e-03  -1.6211137e-03
  -7.2983490e-04   5.3187139e-03
  -4.3949397e-03   2.2699147e-02
  -1.1377110e-02  -2.0290287e-02
  -5.3014620e-04  -1.3838873e-02
   1.4602627e-03  -5.0921690e-03
  -9.0939730e-03   1.6987367e-02
  -1.6198535e-02   1.6984959e-02
  -1.5380880e-02   2.4928253e-04
  -3.1194132e-04  -8.6240553e-04
   1.4690061e-03  -4.7441487e-03
   2.1351892e-03   4.0143619e-03
  -5.4994893e-03   1.8826466e-02
  -1.1408275e-02  -1.3741924e-02
  -3.0061253e-04  -1.6556170e-02
   1.9026558e-03  -5.3139450e-03
  -8.1310717e-03   1.6892568e-02
  -1.8187203e-02   1.6697989e-02
  -1.7912015e-02  -1.2174893e-03
   1.9665719e-04  -2.1822544e-05
   7.9254126e-04  -8.8509603e-03
   4.8606438e-03   1.7334986e-03
  -5.3827724e-03   1.3789522e-02
  -8.5336271e-03  -6.1048188e-03
  -1.0333295e-04  -1.9276386e-02
   2.9287358e-03  -3.9428076e-03
  -6.3777464e-03   1.4462188e-02
  -2.0295423e-02   1.5103551e-02
  -1.9590282e-02  -2.1956421e-03
   7.5482053e-04   1.0959441e-03
   6.9785829e-04  -1.3439418e-02
   6.4317520e-03  -1.5109391e-03
  -4.1642044e-03   7.4787231e-03
  -3.2875666e-03   1.0786726e-03
  -1.9270165e-05  -2.1785274e-02
   4.3402156e-03  -1.1252643e-03
  -3.8323979e-03   9.7250523e-03
  -2.2435028e-02   1.2260528e-02
  -2.0010188e-02  -2.6429965e-03
   1.4828630e-03   2.0998279e-03
   1.5347251e-03  -1.7873339e-02
   6.0647904e-03  -5.4378883e-03
  -2.2744311e-03   3.2755728e-05
   3.0756029e-03   6.4908556e-03
  -1.2442919e-04  -2.3597856e-02
   5.7379675e-03   2.9185363e-03
  -5.1362635e-04   2.9355283e-03
  -2.4479207e-02   8.3638796e-03
  -1.8893749e-02  -2.5936899e-03
   2.5781768e-03   2.5599285e-03
   3.4364749e-03  -2.1422934e-02
   3.4713414e-03  -9.4574626e-03
  -3.2564756e-04  -8.0210559e-03
   8.8850147e-03   9.3399421e-03
  -4.3362660e-04  -2.3967766e-02
   6.6302168e-03   7.9558073e-03
   3.4996544e-03  -5.4167600e-03
  -2.6260462e-02   3.7385256e-03
  -1.6143209e-02  -2.1368655e-03
   4.2644789e-03   2.0878449e-03
   6.2202785e-03  -2.3336056e-02
  -9.7046469e-04  -1.2704934e-02
   1.0765549e-03  -1.5734085e-02
   1.2486894e-02   9.5126774e-03
  -8.5426538e-04  -2.1998777e-02
   6.5798761e-03   1.3764838e-02
   8.0137663e-03  -1.4606562e-02
  -2.7569735e-02  -1.1848011e-03
  -1.1880349e-02  -1.3830962e-03
   6.7224813e-03   4.2821735e-04
   9.3614218e-03  -2.2946856e-02
  -6.1954819e-03  -1.4164722e-02
   1.5254858e-03  -2.1838704e-02
   1.2696867e-02   7.5327753e-03
  -1.1726310e-03  -1.6859938e-02
   5.3527297e-03   2.0110214e-02
   1.2665099e-02  -2.3683453e-02
  -2.8155578e-02  -5.9092926e-03
  -6.4706585e-03  -4.2561330e-04
   1.0012879e-02  -2.4503834e-03
   1.2065829e-02  -1.9818694e-02
  -1.0616329e-02  -1.2883610e-02
   9.5295628e-04  -2.4979419e-02
   9.1538779e-03   4.3289204e-03
  -1.0889368e-03  -8.0810179e-03
   3.0275675e-03   2.6673623e-02
   1.6881691e-02  -3.1495788e-02
  -2.7721940e-02  -9.9226979e-03
  -5.3234784e-04   6.9615487e-04
   1.4005251e-02  -6.2800112e-03
   1.3444827e-02  -1.3911294e-02
  -1.2474075e-02  -8.2493154e-03
  -3.2733069e-04  -2.4031389e-02
   2.4846416e-03   8.6830170e-04
  -3.0609352e-04   4.1185141e-03
   3.9104558e-05   3.2959799e-02
   1.9879191e-02  -3.6731624e-02
  -2.5923256e-02  -1.2752078e-02
   5.0683491e-03   2.0237280e-03
   1.8326996e-02  -1.0447893e-02
   1.2773201e-02  -5.7551809e-03
  -1.0338108e-02  -2.9201538e-04
  -1.6911691e-03  -1.8437303e-02
  -5.7633608e-03  -2.2480541e-03
   1.3359289e-03   1.8529593e-02
  -2.8583610e-03   3.8208614e-02
   2.0705314e-02  -3.7980879e-02
  -2.2355530e-02  -1.4015403e-02
   9.2331283e-03   3.6898540e-03
   2.2344307e-02  -1.3992261e-02
   9.7910725e-03   3.3947581e-03
  -3.6851578e-03   1.0044305e-02
  -2.3786697e-03  -8.4825033e-03
  -1.3403576e-02  -5.1171172e-03
   3.7004596e-03   3.2748200e-02
  -4.6988184e-03   4.1347361e-02
   1.8339661e-02  -3.3821465e-02
  -1.6542851e-02  -1.3463794e-02
   1.0656311e-02   5.9068909e-03
   2.5183049e-02  -1.5645196e-02
   4.9945676e-03   1.1462032e-02
   6.5373162e-03   2.0717262e-02
  -1.7333169e-03   4.5625485e-03
  -1.8036536e-02  -8.6974592e-03
   6.1986473e-03   4.3117792e-02
  -4.4587494e-03   4.1010153e-02
   1.1845199e-02  -2.2927640e-02
  -7.9214154e-03  -1.1010194e-02
   7.8576470e-03   8.9348357e-03
   2.5792413e-02  -1.3920489e-02
  -1.4936490e-04   1.5540319e-02
   1.7472077e-02   2.8538219e-02
   5.5330745e-04   1.8476119e-02
  -1.7515059e-02  -1.4750911e-02
   7.6718160e-03   4.4848436e-02
  -1.2215187e-03   3.5635785e-02
   5.5473314e-04  -4.1941286e-03
   4.1717124e-03  -6.7436211e-03
  -7.7312045e-04   1.3037762e-02
   2.3048945e-02  -7.2351745e-03
  -3.1305843e-03   1.1996007e-02
   2.4147469e-02   2.9295243e-02
   4.2558555e-03   3.0301150e-02
  -1.0334652e-02  -2.5565146e-02
   6.3434691e-03   3.2311297e-02
   5.6860702e-03   2.3635782e-02
  -1.5737865e-02   2.3134515e-02
   2.0490177e-02  -9.3261490e-04
  -1.6909972e-02   1.8441138e-02
   1.5892811e-02   5.9533882e-03
  -5.2598855e-04  -3.3127120e-03
   1.9606168e-02   1.8057784e-02
   8.5442646e-03   3.6710070e-02
   4.1440282e-03  -4.3516553e-02
  -1.3512611e-04  -5.2203908e-04
   1.6615283e-02   3.6056737e-03
  -3.6623755e-02   5.9343196e-02
   4.1826232e-02   5.9752896e-03
  -4.2185955e-02   2.5302912e-02
   3.4816460e-03   2.7013739e-02
   1.1622961e-02  -3.4715722e-02
  -4.5565836e-03  -1.0353346e-02
   1.2060317e-02   3.4454018e-02
   2.5688371e-02  -7.0574113e-02
  -1.4534296e-02  -5.9548328e-02
   3.1589489e-02  -2.5459877e-02
  -6.1012570e-02   1.0414960e-01
   6.8883066e-02   1.3350854e-02
  -7.8028126e-02   3.3708457e-02
  -1.4660091e-02   5.7025674e-02
   3.7166167e-02  -8.6347145e-02
  -5.7203562e-02  -6.0773263e-02
   1.3142566e-02   2.0815127e-02
   5.3390891e-02  -1.0786028e-01
  -3.9793323e-02  -1.4997508e-01
   5.0365374e-02  -6.3990379e-02
