  -4.0982163e-02  -2.1564089e-03   2.8590568e-01   1.8199372e-01  -2.9383668e-01   2.3671263e-01   2.3635349e-01  -7.9837640e-02   5.6415218e-01  -3.4251392e-01   5.4112776e-01  -3.2461581e-02   4.2609157e-01   6.2339628e-01  -1.9919561e-01  -4.9822608e-01  -2.0044841e-01  -3.4339507e-01  -9.4444314e-01  -5.1338104e-02   6.5008745e-01   8.8093829e-01  -6.5154763e-01   9.9665719e-02  -3.8287197e-01   1.3848736e-01   3.6918633e-01
   3.2368141e-02  -1.9382691e-01   1.2650516e-02   6.9901763e-02   2.1890015e-01  -4.7615159e-02  -4.5287896e-02   3.4630886e-02   2.4778944e-01   8.0827168e-02   2.4452337e-01   2.3349122e-02   1.0546985e+00   8.2182428e-02   6.6194018e-01  -1.3267788e+00  -9.9504668e-02  -5.3062524e-01   5.6904691e-01   7.9048301e-01  -1.0998060e-01   1.2601387e+00  -6.0011001e-01   2.1176330e-01  -7.8584573e-01  -1.1200877e+00  -1.6000523e+00
   9.0236732e-02   1.0851715e-01  -3.8722247e-02   7.9447996e-03  -3.0551700e-01   1.7011126e-01  -2.1623483e-01   6.8365712e-02  -3.6692475e-01  -1.2531772e-01  -5.8051085e-02   1.5344758e-01  -1.8386352e-01  -1.1217413e-01   3.9567574e-01  -3.5146813e-03  -3.6012678e-01   2.4964755e-01   6.2463232e-01   8.0332902e-01  -6.2152793e-01   4.0672349e-01   2.4880560e-01   6.3002909e-01   3.4891284e-01   7.8932952e-02  -1.6366742e+00
   3.5606085e-02   1.0097434e-01   1.3908585e-02   8.1583257e-02   9.0327482e-02   1.7593611e-01  -2.1676807e-02   1.7271967e-01  -3.8589719e-01   1.2777018e-01  -2.2800582e-01   8.2816516e-01  -9.0283715e-01   1.0763237e+00  -3.8167608e-01  -6.2678121e-01   5.9489932e-01  -3.4225216e-01  -3.9896092e-01   6.2635584e-02   9.5863281e-01   1.3816384e-01  -2.2351341e-01  -4.4314543e-01  -2.6188350e-01   7.8257812e-01  -1.3165627e+00
  -1.0463664e-02   7.8620780e-03   3.2568607e-02   7.9869463e-02  -2.6607093e-02  -3.0643687e-01   3.4169800e-02   4.9240719e-01   7.4612282e-01   2.4809047e-01   1.8084171e-01   1.9089901e-01   1.9386771e-01   3.2781606e-01  -7.8457085e-01  -9.6141706e-04   3.6452545e-02  -2.2006667e-01   4.4789206e-01  -3.5889099e-01  -5.1785237e-02   5.5056908e-02   4.4182219e-01  -3.1978584e-01   3.0508711e-01  -6.3185648e-01  -1.0059091e+00
   3.6737546e-02   8.5495681e-02   4.2109151e-03  -1.1777443e-01  -1.4177629e-01  -1.6709320e-01  -1.0471031e-01  -1.4203260e-01   3.7371334e-01   1.9131669e-01   2.5231847e-01   1.2596660e-01  -9.8470562e-01   5.0402567e-01  -3.6500124e-02  -4.4408602e-01  -2.7378140e-01  -2.2799831e-01   7.7570535e-02  -5.1167103e-01  -8.6320554e-01   7.2139546e-02  -4.3299756e-03  -1.0306482e+00  -8.0026728e-02  -6.1783485e-01  -1.6805749e-01
  -1.8845733e-01   2.1880778e-01   9.4615744e-02   1.9050797e-01  -1.6755699e-01  -5.2903565e-01  -2.2295773e-01  -3.0710870e-01  -2.0992770e-01   1.7724344e-02   7.6949075e-01  -7.0849586e-01   8.1791707e-01   3.6505517e-01   3.1997232e-01  -2.3238338e-01  -9.7208497e-01   1.1540539e-01  -1.6691821e-01   5.8500583e-01  -7.4117963e-01  -4.6077498e-01  -8.3271429e-02   1.4461090e+00  -7.0060749e-02   3.8302945e-01  -6.7955926e-01
  -2.7300096e-02   6.0649100e-02   1.7652105e-01  -2.4195323e-01  -1.3581903e-01  -1.4132379e-01   2.1213414e-04   1.8962371e-01  -1.1997834e-01   7.0814401e-02   1.0994465e+00   1.6588647e-01  -3.8745803e-01   3.3740910e-01  -9.1646151e-01  -2.5977894e-01  -2.1497096e-01  -1.1042651e+00  -8.8795927e-01  -4.8552754e-01   1.4968925e-01  -5.7301140e-01   5.5318292e-01   1.2694026e+00   1.1626358e-01  -2.7238162e-01  -5.3056337e-01
  -1.9297191e-02   9.3260936e-02   8.2046522e-02   1.2734565e-01   8.2755247e-02   5.8480747e-01  -2.8666314e-02  -2.0101421e-01   7.8792494e-01   3.9310284e-01  -3.3288483e-01  -3.2915007e-01  -8.7763432e-01   4.5717731e-01   2.7134182e-02   3.4032073e-01  -1.1280508e-01  -4.8699431e-01  -9.0289754e-01  -1.3431595e-01  -6.7261520e-01  -1.5890309e-01  -2.0626929e+00   2.5598571e-01  -6.8847404e-01  -8.5003022e-01  -1.0683660e+00
  -1.0296777e-02   3.5052852e-02   1.3571366e-01  -5.5118256e-03   9.1918889e-02   4.2658769e-01   1.2612674e-01   8.5442397e-02   3.1256898e-01   6.8758149e-01   5.3849781e-01   5.9950324e-01   1.5258169e-01   8.9727274e-01  -4.4178364e-01   5.7808589e-01   3.0298337e-01   9.1472738e-01  -1.0956048e+00   3.5483900e-01  -3.8814282e-01   4.5713009e-01   2.5573226e-01   2.5094085e-01  -5.0075125e-01  -1.1792341e+00  -2.7172151e-01
  -2.8773804e-02   1.7824076e-03   1.9167782e-01   1.1206948e-01  -1.9240622e-01   1.6779504e-01   1.6494302e-01  -3.9226573e-02   3.4720304e-01  -1.8183507e-01   3.5183759e-01  -3.1080200e-02   2.1000427e-01   4.0389747e-01  -1.6883901e-01  -2.4524213e-01  -5.5902468e-02  -3.1507479e-01  -6.1673717e-01  -1.6576491e-01   3.8807120e-01   5.4151127e-01  -4.6200212e-01  -5.1179838e-02  -8.6961590e-02   3.6568949e-03   1.8466776e-01
   1.8292089e-02  -1.0695195e-01   4.4756086e-04   2.9655272e-02   1.3395967e-01  -2.2531079e-02  -1.8243762e-02   4.7743750e-02   1.1627960e-01   1.4372911e-02   1.5732325e-01   1.3590834e-02   6.5058973e-01   1.4082754e-01   2.8745965e-01  -7.0053672e-01   1.4564763e-02  -2.9135307e-01   3.1391337e-01   3.8708713e-01  -7.3917888e-02   6.1415881e-01  -3.9141859e-01   5.7859619e-02  -4.7857677e-01  -5.0726198e-01  -7.4089432e-01
   2.9711533e-02   4.6585393e-02  -1.8250192e-02   1.0823425e-02  -1.1950226e-01   8.2163295e-02  -7.1965557e-02   2.4070604e-02  -1.6998868e-01  -5.9510116e-02   1.9460654e-03   8.1712589e-02  -1.2844611e-01   2.2469237e-02   1.5178000e-01   5.7035462e-02  -1.2531548e-01   9.8624594e-02   3.5177436e-01   2.9904049e-01  -2.6270738e-01   9.9199554e-03   9.7229550e-02   2.8212639e-01   2.4465422e-01   1.4940235e-01  -4.1711812e-01
   3.5053696e-03   2.9408963e-02   4.9052016e-03   8.1535062e-03   1.6571065e-02   6.0630966e-02  -2.2174319e-02   9.5400305e-02  -4.8753838e-02   3.8872449e-02  -7.3375756e-02   2.0206875e-01  -2.6880310e-01   2.4578729e-01  -1.8889320e-01  -1.2187196e-01   1.9469202e-01  -4.5443579e-02  -1.4359056e-02  -1.6172832e-01   1.3492173e-01  -1.3783280e-01  -5.2912258e-02  -5.0354819e-03   1.1212343e-02   2.0963238e-01   2.5274858e-03
   1.2152529e-03   6.8601689e-03   1.7257544e-02   1.8994596e-02  -1.6003657e-02  -8.2964408e-02  -1.8322911e-02   8.7309638e-02   1.7821640e-01   5.9648144e-02   2.9274994e-03   8.5147272e-02  -3.5017743e-02   1.3435260e-01  -1.6710314e-01  -9.4603780e-02  -1.0165382e-02  -1.0244648e-01   6.5289104e-02  -1.6271972e-01  -1.7572045e-01  -8.1322957e-02  -4.2393789e-03  -1.0898863e-01   6.0800744e-02  -1.1743174e-01  -2.1974731e-01
   3.3238756e-03   1.0885244e-02   1.5263276e-03  -1.5932197e-02  -2.3041838e-02  -4.7198500e-02  -1.8512883e-02   3.1308346e-02   1.0461576e-01   6.3399740e-02  -1.2043530e-02   6.8237119e-02  -1.3268894e-01   1.6891749e-01  -1.2721225e-01  -7.2290392e-02  -6.5081232e-02   9.0141251e-03   1.5920317e-01  -1.0056640e-01  -4.4654007e-02  -5.2490303e-02   7.0907855e-02  -6.8054546e-02  -2.3317686e-02  -1.0424629e-01  -7.2900917e-02
  -1.2452717e-01   1.4296578e-01   5.8584902e-02   1.1024522e-01  -8.8470874e-02  -3.5739043e-01  -1.1841303e-01  -1.1394996e-01  -1.4772993e-01  -9.8478408e-03   4.7390960e-01  -2.6088776e-01   4.5281446e-01   1.3815051e-01   1.5943838e-01  -3.7391168e-02  -3.7760157e-01   7.9172903e-02  -7.8906522e-03   2.2945269e-01  -2.5793612e-01  -2.5704479e-01   2.2261248e-01   6.6487791e-01  -4.6082521e-02   2.8868778e-01  -2.5323211e-01
  -1.9219882e-02   3.3041014e-02   8.6979214e-02  -1.0778204e-01  -7.7686622e-02  -1.0726149e-01   2.7500531e-02   8.0587261e-02  -1.2002834e-01  -1.6969357e-03   4.8419258e-01  -1.8291728e-02  -1.4382539e-01   1.0499500e-01  -2.7319074e-01  -1.9449845e-01  -1.8617020e-01  -7.4549917e-01  -3.2745378e-01  -2.0711753e-01   3.5762177e-03  -3.6519385e-01   1.5801914e-01   6.0641670e-01   3.7948633e-01   1.5480240e-01  -2.2523491e-01
  -7.8338702e-03   4.9692036e-02   6.1694666e-02   8.6614007e-02   7.9203797e-02   4.0047844e-01   1.0886155e-02  -6.9844318e-02   4.8571871e-01   2.5714332e-01  -3.8127484e-01  -1.2329875e-01  -5.8594115e-01   1.1443205e-01   8.0115466e-02   1.6326826e-01   1.2555195e-01  -2.7945864e-01  -4.6128176e-01  -1.1653387e-01  -1.8595546e-01  -1.6459933e-01  -1.1603225e+00   1.0286337e-02  -3.1104045e-01  -4.8855261e-01  -4.7931831e-01
  -3.9315810e-03   7.9205421e-03   7.5765249e-02   9.3737936e-03   6.9557723e-02   2.3696828e-01   8.4473741e-02   5.7047395e-02   1.2254984e-01   3.7322051e-01   9.2821022e-02   2.3829894e-01   1.4885776e-01   3.4903757e-01  -5.8307350e-02   2.9101969e-01   1.5180794e-01   7.8541937e-01  -2.5862919e-01   2.4664661e-01  -1.1242571e-01   3.5102757e-01   1.5250531e-01  -8.2139802e-03  -2.1131526e-01  -5.0547165e-01  -7.2515496e-02
  -1.8495971e-02   4.1092743e-03   1.1443281e-01   5.6461427e-02  -1.1215158e-01   1.1661869e-01   1.0283981e-01  -1.6434498e-02   1.6495973e-01  -6.7777865e-02   1.8896884e-01  -3.2195095e-02   3.5991889e-02   2.1041300e-01  -1.1582554e-01  -6.1623174e-02   2.3800344e-02  -2.6128474e-01  -3.3645527e-01  -2.1476155e-01   1.7425839e-01   2.7165064e-01  -2.8552279e-01  -1.3692037e-01   1.0531627e-01  -7.8727919e-02   7.1847655e-02
   8.6530634e-03  -4.0965249e-02  -7.8960712e-03   5.8204756e-03   7.0704650e-02  -3.2844111e-03  -3.9992912e-03   4.3766269e-02   9.5323560e-03  -2.6252455e-02   7.3852067e-02   2.6099273e-02   3.1371382e-01   1.7401925e-01   3.1184213e-02  -2.4954574e-01   9.2510015e-02  -1.1649446e-01   1.1174799e-01   1.0973258e-01  -3.4168634e-02   1.3008561e-01  -2.2809891e-01  -6.4376929e-02  -2.1540377e-01  -6.0424876e-02  -1.5837684e-01
  -7.6498448e-03   6.1379849e-03  -2.2579125e-03   9.0344883e-03   6.9773514e-04   2.1054601e-02   1.8560636e-02  -4.4090691e-03  -3.4557784e-02  -1.2477725e-02   3.3660610e-02   3.7069586e-02  -7.4087497e-02   8.9198732e-02  -1.7064053e-02   7.1262560e-02   2.1654544e-02  -1.1570658e-02   1.4077577e-01  -3.2446522e-02  -1.3970205e-02  -1.9143527e-01  -4.5667917e-03   4.7673173e-02   1.4662953e-01   1.3668623e-01   2.8633911e-01
  -1.5157349e-02  -6.6479804e-03   5.8804584e-04  -2.7052848e-02  -2.8786832e-02  -1.5338139e-02  -1.4058862e-02   2.6982115e-02   1.1764238e-01  -5.1594176e-03   1.6972955e-02  -1.5350330e-01   8.7917068e-02  -2.2552197e-01  -7.8272656e-02   1.9479858e-01  -5.1863656e-02   1.1947508e-01   1.3204728e-01  -2.3779080e-01  -2.8363191e-01  -2.6386019e-01   5.6553675e-02   2.1739392e-01   1.6541762e-01  -8.8777231e-02   6.7621965e-01
   4.3204446e-03   1.6232273e-03   1.0011533e-02  -9.2897585e-03  -1.1889616e-02   4.7052717e-02  -3.1367967e-02  -1.2630474e-01  -1.1960083e-01  -5.8339483e-02  -8.4906157e-02   1.1083103e-03  -1.0016553e-01   4.1407597e-03   1.6181818e-01  -1.0849507e-01  -1.9108676e-02  -3.2853086e-02  -1.3035677e-01  -5.2675469e-02  -1.7928077e-01  -1.1133586e-01  -2.4669221e-01   3.2375732e-02  -7.6836680e-02   1.6838033e-01   2.6122521e-01
  -1.1866822e-02  -2.6410559e-02  -1.4907332e-03   3.4201010e-02   3.8380547e-02   1.7450864e-02   1.9757941e-02   9.2257440e-02  -5.7521886e-02  -2.0752222e-02  -1.4417527e-01   1.5889705e-02   3.0534034e-01  -3.3210888e-02  -1.0079259e-01   1.0757010e-01   4.6267932e-02   1.0760694e-01   1.6682010e-01   1.2966284e-01   3.2255303e-01  -9.0711282e-02   5.6377581e-02   3.8576406e-01   1.4833086e-02   1.7183030e-01   2.2845882e-04
  -7.3041691e-02   8.0989092e-02   2.9222833e-02   5.5152777e-02  -3.7597865e-02  -2.1381875e-01  -4.7120114e-02   9.3737979e-03  -9.4638094e-02  -2.3283129e-02   2.5100347e-01   1.7564934e-02   1.7804231e-01  -1.6551379e-02   5.1321253e-02   9.9015853e-02   9.1128344e-03   6.5702471e-02   1.1519953e-01  -4.9987568e-03   4.4505812e-02  -1.1026864e-01   3.4146599e-01   1.2820558e-01  -3.5369937e-02   2.0573911e-01   3.7042559e-02
  -1.2216799e-02   1.3365489e-02   2.4049577e-02  -1.0761023e-02  -3.6155638e-02  -7.6248801e-02   4.1638177e-02   7.0238234e-03  -9.6686090e-02  -4.6038063e-02   8.2041182e-02  -1.3023287e-01   3.4060615e-02  -4.2685222e-02   1.2850875e-01  -1.2589360e-01  -1.5475820e-01  -4.6194900e-01   3.2814879e-02  -1.7399560e-02  -1.0403729e-01  -1.8589295e-01  -1.0677406e-01   1.3357585e-01   4.6160212e-01   3.7343128e-01  -1.2413369e-03
   4.9529956e-04   1.8120094e-02   4.2276859e-02   5.7113003e-02   6.6263679e-02   2.4514990e-01   3.3031673e-02   1.3036205e-02   2.4302155e-01   1.3934956e-01  -3.7128944e-01   3.2177325e-03  -3.3096476e-01  -1.1222142e-01   1.1246198e-01   2.0562884e-02   2.4014420e-01  -1.2067840e-01  -1.4053528e-01  -8.3107856e-02   1.3104364e-01  -1.6869939e-01  -4.9324384e-01  -1.3062562e-01  -2.6788194e-02  -2.3387798e-01  -5.1936521e-02
   6.9364431e-04  -1.0189429e-02   3.5285974e-02   1.6454486e-02   4.5626789e-02   9.2958460e-02   4.7453709e-02   3.1643775e-02  -3.5287836e-03   1.4043247e-01  -1.6858479e-01  -1.4983686e-02   1.3215689e-01  -1.2658906e-02   1.7350852e-01   7.3401482e-02   3.5883377e-02   6.2948686e-01   2.4462023e-01   1.3419461e-01   5.8774898e-02   2.7901991e-01   7.3894202e-02  -1.6202248e-01  -3.4036612e-02  -5.7517744e-02   7.5153961e-02
  -1.0257382e-02   4.9577697e-03   5.4302455e-02   1.5171004e-02  -5.2310630e-02   7.9236314e-02   5.1858272e-02  -4.4305954e-03   2.2298035e-02   7.1796794e-03   5.6385807e-02  -3.4621587e-02  -9.4269551e-02   4.9642748e-02  -5.5355327e-02   6.1860687e-02   5.3704096e-02  -1.9139091e-01  -1.0284654e-01  -2.1128441e-01   1.3506487e-02   6.9927268e-02  -1.2415427e-01  -1.7132247e-01   2.1402473e-01  -1.2016425e-01   1.2284456e-02
   2.5788463e-03   4.3513422e-03  -1.3106683e-02  -5.8310159e-03   2.6113104e-02   8.7824082e-03   1.0042085e-03   2.8268846e-02  -6.6422884e-02  -4.5622382e-02   5.7084429e-03   4.6166462e-02   5.7204873e-02   1.7674746e-01  -1.2201428e-01   5.2037865e-02   1.3446021e-01   2.6292853e-03  -3.2303926e-02  -6.4636661e-02  -2.0509490e-03  -2.0634954e-01  -9.9200105e-02  -1.4890955e-01  -4.7487478e-03   2.3023632e-01   2.1371538e-01
  -2.6108024e-02  -1.6488689e-02   8.8013714e-03   4.8290390e-03   6.5069032e-02  -1.6023190e-02   6.3682529e-02  -2.0466895e-02   4.6902977e-02   1.5757043e-02   4.3986683e-02   9.6334113e-03  -2.6401156e-02   1.0343282e-01  -1.1356841e-01   5.5130009e-02   9.1052798e-02  -8.0047433e-02  -2.6970821e-03  -2.1499170e-01   1.2496959e-01  -2.4692225e-01  -6.6552114e-02  -8.5000822e-02   6.0835918e-02   7.5211665e-02   5.9702040e-01
  -2.3146966e-02  -1.7302016e-02  -4.3063258e-04  -3.6649363e-02  -4.9705635e-02  -5.5192558e-02  -3.3287501e-03  -2.3631079e-02   1.6348800e-01  -1.8534925e-02   5.2441811e-02  -2.9560623e-01   2.2925294e-01  -4.1952461e-01  -2.6149332e-02   3.4869548e-01  -1.6676343e-01   1.8480835e-01   1.2729046e-01  -2.1757081e-01  -4.1322910e-01  -2.7893525e-01   1.1785292e-01   2.8052362e-01   2.2267652e-01  -1.8545513e-01   8.7376626e-01
   2.6058808e-03  -4.1736841e-03   7.9491453e-03  -1.5543979e-02  -1.1649547e-02   1.0324160e-01  -2.1363367e-02  -1.9839464e-01  -2.2055759e-01  -1.1658591e-01  -1.0677365e-01  -5.7147993e-02  -7.0535654e-02  -6.8676345e-02   2.7762475e-01  -7.7655720e-02  -9.0884302e-03  -1.9417247e-03  -1.9566322e-01  -6.4344990e-03  -1.1774842e-01  -7.7280797e-02  -3.3349941e-01   1.0841413e-01  -1.3671727e-01   2.7875550e-01   4.7707342e-01
  -1.4878421e-02  -3.7507175e-02  -3.8602748e-03   4.7118805e-02   5.7869164e-02   4.1616050e-02   2.7215025e-02   8.2427096e-02  -1.2918285e-01  -6.4610095e-02  -1.7737835e-01  -2.1604192e-02   4.3903680e-01  -1.2781993e-01  -2.4526720e-02   1.5454016e-01   8.4616560e-02   1.1545401e-01   1.3100282e-01   2.1575983e-01   3.9334353e-01  -7.4820164e-02   4.2076668e-03   4.8559602e-01   2.5883936e-02   2.7584830e-01   5.3389941e-02
  -3.4170880e-02   3.4303019e-02   7.0942373e-03   2.1594696e-02  -9.2837460e-03  -9.7195912e-02  -4.1040451e-03   7.6742196e-02  -5.2335977e-02  -2.5019345e-02   9.6823299e-02   1.6096447e-01  -1.5794634e-02  -1.0349972e-01  -1.5159548e-02   1.8289765e-01   2.2505308e-01   6.3853253e-02   1.9189727e-01  -1.3777693e-01   1.9967964e-01  -1.0424027e-02   3.2709955e-01  -1.9697194e-01  -4.0521032e-02   1.3745482e-01   1.9928309e-01
  -6.6269973e-03   4.6425768e-04  -1.6751158e-02   5.2542381e-02  -7.8272311e-03  -4.9707456e-02   4.6272440e-02  -3.5774464e-02  -6.0501373e-02  -6.7354242e-02  -1.4753762e-01  -1.8137538e-01   1.5007977e-01  -1.2426666e-01   3.3234025e-01  -5.7553136e-02  -1.1918789e-01  -2.5187324e-01   2.3323584e-01   9.7804197e-02  -1.6740099e-01  -4.7235175e-02  -2.6068990e-01  -1.7277629e-01   4.1311615e-01   4.3612014e-01   1.4258694e-01
   5.4416606e-03  -1.6591585e-03   2.4731900e-02   3.7252758e-02   4.8215576e-02   1.1929829e-01   4.1143660e-02   5.8207032e-02   5.7135092e-02   4.2384168e-02  -3.1862402e-01   6.9735827e-02  -1.1890236e-01  -2.3810343e-01   1.2516940e-01  -8.7899261e-02   2.5953318e-01  -7.8703692e-03   7.0914983e-02  -4.0306676e-02   3.0752119e-01  -1.6879862e-01  -2.6898123e-02  -1.8237015e-01   1.7008874e-01  -6.1855772e-02   2.2602341e-01
   3.6216997e-03  -2.0673199e-02   1.0475788e-02   1.7090637e-02   2.2941357e-02  -6.8605398e-03   1.5620270e-02   1.1262085e-02  -7.7938615e-02  -1.6794071e-02  -2.8779959e-01  -1.7046297e-01   1.0536052e-01  -2.1836534e-01   2.8246266e-01  -7.6981048e-02  -4.2495257e-02   4.6249672e-01   4.8319794e-01   2.9363702e-02   1.4822646e-01   2.2516790e-01   1.6995813e-02  -2.3358313e-01   6.1814028e-02   2.0798564e-01   1.6667078e-01
  -3.9825962e-03   4.5945236e-03   1.0552750e-02  -1.2583659e-02  -1.1273309e-02   5.2407637e-02   1.2541016e-02   1.8013612e-03  -8.0270108e-02   5.0654847e-02  -4.4595535e-02  -3.7206075e-02  -1.8325365e-01  -7.4130574e-02   1.5054701e-03   1.3472348e-01   4.8116696e-02  -1.1441511e-01   8.5024551e-02  -1.6864595e-01  -9.4176820e-02  -6.9752484e-02   1.8870384e-02  -1.6830431e-01   2.5839756e-01  -1.3013676e-01  -1.1060283e-02
  -7.8787549e-04   3.0802497e-02  -1.5808483e-02  -8.9846063e-03  -2.9905146e-03   1.3402521e-02   4.3450322e-04   6.0162832e-03  -1.1049623e-01  -4.8058927e-02  -3.9986965e-02   6.4155499e-02  -1.1636607e-01   1.5081223e-01  -1.9184380e-01   2.3226304e-01   1.4466748e-01   7.5550606e-02  -1.2169632e-01  -1.5876583e-01   1.8571640e-02  -4.1429008e-01   3.9640513e-03  -1.9465642e-01   1.4928475e-01   3.8332979e-01   4.3115993e-01
  -3.0394423e-02  -2.5389849e-02   1.4982533e-02   9.2443385e-05   8.5905070e-02  -3.3369791e-02   7.3915050e-02  -2.7552334e-02   8.4349563e-02   2.7738838e-02   4.0124615e-02  -7.7956486e-03   1.0795674e-02   8.2370435e-02  -1.4815419e-01   2.3664221e-02   9.9797562e-02  -1.1007407e-01  -8.1586792e-02  -2.7978079e-01   1.6937755e-01  -2.0570935e-01  -9.7624968e-02  -1.3464326e-01  -8.7994750e-03  -6.7853670e-03   6.3510656e-01
  -2.3378749e-02  -1.2329609e-02   5.7369996e-04  -3.1379360e-02  -5.2160488e-02  -6.6126903e-02   5.9820970e-03  -5.2792562e-02   1.3564034e-01  -1.4031709e-02   4.7563371e-02  -2.8904038e-01   2.2321782e-01  -4.2342316e-01  -1.1006539e-02   3.7602280e-01  -1.8256105e-01   1.8147448e-01   4.6674786e-02  -1.4665726e-01  -3.6321885e-01  -2.2097894e-01   1.4275515e-01   2.4200945e-01   2.0953499e-01  -1.5362321e-01   7.6300998e-01
  -9.2938782e-04  -8.1844469e-03   8.5708339e-03  -9.3348793e-03  -1.3119983e-02   1.0725708e-01  -1.9587565e-03  -1.7828049e-01  -1.9511697e-01  -1.2929467e-01  -8.6328586e-02  -8.8510199e-02  -3.6609376e-03  -9.4259866e-02   2.5456589e-01  -3.0944388e-02   6.5334571e-03   1.1598108e-03  -1.8002657e-01  -3.1608182e-03  -3.4689091e-02  -1.4475564e-02  -3.1276481e-01   1.2663238e-01  -1.4490605e-01   2.6944877e-01   4.8927459e-01
  -1.1042913e-02  -3.2581540e-02  -5.2131777e-03   3.7130370e-02   5.0572549e-02   3.9542427e-02   1.8264594e-02   3.7977189e-02  -1.3352355e-01  -7.5706755e-02  -1.4674151e-01  -4.1105260e-02   3.7948399e-01  -1.4434684e-01   5.3475831e-02   1.2336968e-01   7.5462200e-02   7.4411568e-02   7.7344040e-02   2.0235753e-01   3.0133149e-01  -3.4035619e-02  -5.0196002e-02   3.7709470e-01   1.1840556e-02   2.6970500e-01   8.5309445e-02
  -7.2403975e-03   2.6901106e-03  -7.7741564e-03   4.4655864e-03   2.6768889e-03  -5.9854107e-03   1.7427618e-02   1.0286447e-01  -2.1329846e-02  -1.8384871e-02   9.1676261e-04   2.0876372e-01  -1.4153554e-01  -1.3470217e-01  -4.9921330e-02   2.2225534e-01   3.1440750e-01   6.5047143e-02   2.2269911e-01  -1.9391962e-01   2.4728396e-01   5.2326336e-02   2.3457667e-01  -3.5760823e-01  -5.7004174e-02   8.4388368e-02   2.5572928e-01
  -2.5696064e-03  -6.9892024e-03  -3.9957289e-02   8.6939306e-02   1.0533001e-02  -2.8689527e-02   4.4493789e-02  -5.3470253e-02  -2.0301450e-02  -7.1095806e-02  -2.4571240e-01  -1.8512527e-01   2.1130432e-01  -1.5804079e-01   3.8492871e-01   6.9144113e-03  -8.0058131e-02  -1.0841934e-01   3.1466301e-01   1.5382989e-01  -1.8643107e-01   4.6028521e-02  -3.2430039e-01  -3.4012544e-01   2.8212053e-01   3.9090191e-01   2.1480593e-01
   7.2043155e-03  -1.0970402e-02   9.7045634e-03   2.4783269e-02   2.9109947e-02   2.2079735e-02   3.9477338e-02   7.6169656e-02  -7.6277645e-02  -3.3224011e-02  -2.4091007e-01   9.7351829e-02   4.6402285e-02  -2.8427774e-01   1.2117111e-01  -1.6290912e-01   2.1482680e-01   6.3825254e-02   1.9126153e-01   3.2439998e-03   3.7721948e-01  -1.6272437e-01   2.7729797e-01  -1.6918820e-01   2.9126189e-01   4.9120950e-02   3.7832324e-01
   5.0863570e-03  -2.5067487e-02  -2.3505680e-03   1.2908558e-02   3.5721847e-03  -6.6371750e-02  -1.0807811e-02  -2.5866304e-03  -1.1266449e-01  -1.0786629e-01  -3.0553799e-01  -2.4280708e-01   7.2414127e-02  -3.0114939e-01   2.9916036e-01  -1.6623771e-01  -8.4693301e-02   2.9908097e-01   5.2751209e-01  -5.9219599e-02   1.7742396e-01   1.7910565e-01  -2.0628799e-02  -2.4576558e-01   1.0360079e-01   3.3349993e-01   2.0484191e-01
   5.3927481e-04   3.3622903e-03  -1.8288838e-02  -2.8257660e-02   1.3220213e-02   3.3655070e-02  -1.5620205e-02   5.3736455e-03  -1.4585432e-01   6.9997088e-02  -1.1495526e-01  -3.9004244e-02  -2.3637059e-01  -1.5932298e-01   4.7868646e-02   1.6652680e-01   2.0038420e-02  -3.8467194e-02   2.2853370e-01  -9.9882485e-02  -1.5288390e-01  -1.5678824e-01   1.3975817e-01  -1.4117821e-01   2.5601023e-01  -1.1617536e-01  -1.2677503e-02
  -2.2311622e-03   4.1413946e-02  -1.6510523e-02  -6.7346807e-03  -1.9718195e-02   1.1396278e-02  -2.3887730e-03  -1.8952886e-02  -1.2570024e-01  -3.7558961e-02  -6.0820353e-02   7.5364990e-02  -2.1357594e-01   1.0320042e-01  -2.0027700e-01   3.1914599e-01   1.3065909e-01   1.1204502e-01  -1.6577026e-01  -1.9413865e-01   2.9369312e-02  -5.1602988e-01   8.7571256e-02  -2.0486632e-01   2.4684825e-01   4.2423381e-01   5.3848013e-01
  -2.5246909e-02  -2.4668015e-02   1.6785321e-02  -3.8093048e-03   7.6417774e-02  -3.6051851e-02   6.0530324e-02  -2.8595440e-02   8.8918416e-02   2.7647388e-02   2.8550547e-02  -1.9703268e-02   3.5762453e-02   4.2777539e-02  -1.3627438e-01  -1.0717423e-02   6.8224481e-02  -1.0821617e-01  -1.0572441e-01  -2.6119861e-01   1.4425250e-01  -1.1250021e-01  -1.0551335e-01  -1.2413808e-01  -6.0407383e-02  -8.7714615e-02   5.0840684e-01
  -1.8688884e-02  -1.4222255e-04   2.5014264e-03  -1.9557251e-02  -4.2850586e-02  -5.7425793e-02   1.1670428e-02  -6.1261010e-02   7.3649726e-02  -2.0050562e-03   1.9184379e-02  -1.9780213e-01   1.3486016e-01  -3.1854485e-01  -1.5363602e-02   3.1759771e-01  -1.3620278e-01   1.3726271e-01  -5.2025755e-02  -6.0797189e-02  -2.2676404e-01  -1.2422431e-01   1.4154071e-01   1.5455974e-01   1.5292823e-01  -5.8601951e-02   4.9331048e-01
  -4.1923611e-03  -9.3910238e-03   9.9536144e-03   1.5801544e-03  -1.4774335e-02   8.0043491e-02   1.6912093e-02  -1.0994090e-01  -1.0464396e-01  -1.1180175e-01  -4.4538185e-02  -9.4937522e-02   5.8865064e-02  -8.5455037e-02   1.5852210e-01   1.1172907e-02   1.9810577e-02  -1.2385249e-02  -1.2299673e-01  -2.4622908e-02   4.0061836e-02   5.0310361e-02  -2.2893632e-01   9.8148769e-02  -1.2278420e-01   1.9244452e-01   3.6900078e-01
  -4.5849756e-03  -2.0026542e-02  -5.6287997e-03   1.6676724e-02   2.9831989e-02   2.3568534e-02   3.7637559e-03  -1.3320539e-02  -9.5940004e-02  -6.3815774e-02  -8.4619730e-02  -4.3851849e-02   2.2542203e-01  -1.1230102e-01   1.0467952e-01   5.9173783e-02   4.2007690e-02   1.7385003e-02   2.4429911e-02   1.3387619e-01   1.4998083e-01   9.1654259e-03  -8.6645096e-02   1.8205547e-01  -1.8879494e-02   2.0611961e-01   9.4716994e-02
   9.2485809e-03  -1.5655692e-02  -1.5952624e-02  -1.8947251e-03   4.1225065e-03   6.1552537e-02   2.4841835e-02   1.0169745e-01  -8.6776529e-04  -7.1793845e-03  -5.0575913e-02   1.9934868e-01  -2.1306796e-01  -1.2686129e-01  -6.1741713e-02   2.2621038e-01   3.2161426e-01   6.3708352e-02   2.1669399e-01  -1.9960024e-01   2.2678079e-01   8.7651636e-02   1.1347188e-01  -4.0606464e-01  -7.6142427e-02   4.3847679e-02   2.3761831e-01
   1.6231278e-05  -1.0370366e-02  -4.9915127e-02   9.8156189e-02   2.1788293e-02  -1.3769960e-02   3.8775754e-02  -5.2292365e-02   1.7083201e-02  -6.2614220e-02  -2.5159863e-01  -1.5579831e-01   2.2707228e-01  -1.6060683e-01   3.3256143e-01   6.3988118e-02  -3.9678605e-02  -2.1160275e-02   3.1544394e-01   1.6633657e-01  -1.6594134e-01   9.5313415e-02  -3.1867892e-01  -3.9782384e-01   1.1129899e-01   2.7974186e-01   2.2902342e-01
   6.4175802e-03  -1.2078277e-02  -2.5069391e-03   1.7270511e-02   1.2184184e-02  -4.8590155e-02   3.2403873e-02   7.6403867e-02  -1.6269129e-01  -8.8665223e-02  -1.5505173e-01   1.0519125e-01   1.6412190e-01  -2.7448131e-01   1.0462878e-01  -2.0631539e-01   1.3539497e-01   1.0101538e-01   2.4272273e-01   3.9115627e-02   3.7365836e-01  -1.4842207e-01   4.5738497e-01  -1.1858166e-01   3.5155935e-01   1.1677646e-01   4.3527878e-01
   5.4415476e-03  -2.4948627e-02  -6.5880726e-03   5.6684735e-03  -1.1226524e-02  -9.1417370e-02  -3.1871278e-02  -9.1396992e-03  -1.1881611e-01  -1.4457928e-01  -2.5881315e-01  -2.4976890e-01   3.7702857e-02  -2.9420133e-01   2.5365726e-01  -2.0357976e-01  -9.5267057e-02   1.5159879e-01   4.4420110e-01  -1.2610287e-01   1.6543987e-01   1.3520078e-01  -4.1473349e-02  -2.1951376e-01   1.1394982e-01   3.5868276e-01   1.9802203e-01
   3.6026196e-03   1.6176882e-03  -3.4263350e-02  -3.3815154e-02   2.3858607e-02   2.1183362e-02  -3.3892924e-02   7.8129815e-03  -1.8014992e-01   7.1999773e-02  -1.5752217e-01  -3.9428706e-02  -2.6061087e-01  -2.0705934e-01   8.0614006e-02   1.6669003e-01  -1.9285098e-02   2.9699193e-02   3.2975410e-01  -1.7170735e-02  -1.6978960e-01  -2.0242523e-01   2.3487298e-01  -1.0188481e-01   2.2219141e-01  -8.4203808e-02  -3.8707740e-03
  -2.4200421e-03   3.9971001e-02  -1.5606435e-02  -1.5742910e-03  -2.6970823e-02   4.4814636e-03  -4.8513938e-03  -4.3273525e-02  -1.1791966e-01  -1.7777413e-02  -5.8642735e-02   7.9173626e-02  -2.4779421e-01   4.3918660e-02  -1.6922397e-01   3.3883574e-01   1.0188910e-01   1.2155009e-01  -1.7681488e-01  -1.9017521e-01   3.5181661e-02  -5.3518013e-01   1.5539001e-01  -1.8602579e-01   2.9197996e-01   3.8232540e-01   5.6945721e-01
  -1.4986970e-02  -1.8086604e-02   1.5039967e-02  -6.1025467e-03   4.9355035e-02  -2.9204456e-02   3.4246287e-02  -2.5747809e-02   7.1712779e-02   2.0288123e-02   1.4343775e-02  -2.8259239e-02   4.8760010e-02  -9.2893637e-04  -9.5407000e-02  -3.9192085e-02   1.6865566e-02  -8.3246811e-02  -8.9406264e-02  -1.9291389e-01   7.8611895e-02  -4.3155776e-03  -9.6834870e-02  -7.7439997e-02  -9.3949124e-02  -1.5266862e-01   3.0585793e-01
  -1.1628743e-02   1.2913458e-02   4.4897037e-03  -6.9081673e-03  -2.8067759e-02  -3.8560760e-02   1.3080702e-02  -5.2935487e-02   7.2020261e-03   1.0177596e-02  -1.6489388e-02  -7.7444250e-02   1.8962962e-02  -1.7199297e-01  -2.6685046e-02   2.1308914e-01  -6.2909657e-02   7.5327964e-02  -1.3095824e-01   1.5524660e-02  -7.4537034e-02  -1.7195111e-02   1.2284693e-01   6.0742721e-02   7.7024043e-02   4.8267590e-02   1.8331720e-01
  -6.0141852e-03  -7.8968709e-03   1.0836099e-02   1.1753895e-02  -1.5765884e-02   3.9557784e-02   2.9324701e-02  -2.8549018e-02   2.9098068e-03  -7.8503763e-02   1.8792925e-03  -8.1137526e-02   9.3046163e-02  -5.5945208e-02   4.1709198e-02   3.7255121e-02   2.7359982e-02  -3.2303664e-02  -5.3309248e-02  -5.5878980e-02   9.0162006e-02   9.9487793e-02  -1.1972098e-01   3.7538333e-02  -8.6382245e-02   9.1021973e-02   1.8588967e-01
   1.5768508e-03  -6.0026928e-03  -5.4363807e-03  -4.8303295e-03   6.0583206e-03   3.2323096e-03  -9.2191631e-03  -5.3495726e-02  -4.0114793e-02  -3.9153131e-02  -1.7205420e-02  -3.3569824e-02   5.3569939e-02  -5.7901641e-02   1.1814592e-01  -5.6619540e-03   2.8104949e-03  -3.3165183e-02  -1.6669425e-02   4.8096066e-02   8.9475488e-03   4.0664683e-02  -9.7523719e-02  -1.0894999e-02  -5.5265893e-02   1.2502959e-01   8.2778842e-02
   1.7426955e-02  -2.3728785e-02  -1.8568772e-02  -2.7341246e-03  -1.4787208e-04   1.0724535e-01   2.4841076e-02   8.5201111e-02   1.0820026e-02   4.9470489e-03  -7.1722984e-02   1.6447429e-01  -2.4329384e-01  -9.7578713e-02  -5.8361455e-02   2.0403760e-01   2.8508163e-01   5.7274997e-02   1.8770003e-01  -1.7787947e-01   1.7199952e-01   1.0465043e-01   2.2975611e-03  -3.9096950e-01  -8.8709426e-02   1.0453900e-02   1.7855435e-01
   1.3214445e-03  -1.0981856e-02  -5.0580608e-02   9.2319840e-02   2.8280435e-02  -4.9857852e-03   3.0996145e-02  -3.8599695e-02   4.6898515e-02  -4.6827208e-02  -2.0005490e-01  -1.0746075e-01   2.0794759e-01  -1.4586955e-01   2.1818897e-01   1.1040214e-01  -1.3943318e-03   2.2269840e-02   2.6902110e-01   1.5033636e-01  -1.1444488e-01   1.0664257e-01  -2.6468398e-01  -3.7512151e-01  -6.4253170e-02   1.3758272e-01   2.0150391e-01
   4.0333500e-03  -7.8108840e-03  -1.1949466e-02   1.2581096e-02  -4.9475817e-04  -9.5824517e-02   2.3693076e-02   6.6710065e-02  -2.0838956e-01  -1.2625778e-01  -7.4879885e-02   1.0743565e-01   2.3673385e-01  -2.3172688e-01   8.0039880e-02  -2.2133463e-01   4.5249396e-02   1.1153686e-01   2.4830313e-01   6.1337237e-02   3.2623095e-01  -1.2421786e-01   5.4706727e-01  -5.5618150e-02   3.6612393e-01   1.5452552e-01   4.2825821e-01
   5.0885560e-03  -2.1828393e-02  -5.2056197e-03  -2.8870138e-03  -2.1002087e-02  -8.9146884e-02  -4.7777660e-02  -8.4943793e-03  -1.0620712e-01  -1.4003012e-01  -1.7916261e-01  -2.1045173e-01   5.4453143e-03  -2.2871711e-01   1.7339570e-01  -2.0030737e-01  -8.1120040e-02   2.9205542e-02   2.9193544e-01  -1.6878698e-01   1.2820846e-01   9.1457565e-02  -4.8351068e-02  -1.7258306e-01   1.1001842e-01   3.1881591e-01   1.5803587e-01
   5.5355059e-03  -3.2090597e-04  -3.9785764e-02  -3.1530080e-02   2.3542099e-02   1.3701012e-02  -4.3988603e-02   9.5106753e-03  -1.9027462e-01   6.2692983e-02  -1.7640502e-01  -3.8338675e-02  -2.6326137e-01  -2.2090089e-01   9.9630072e-02   1.4430564e-01  -6.0681238e-02   8.4983114e-02   3.9163595e-01   6.8684786e-02  -1.5401873e-01  -2.1834976e-01   3.0142301e-01  -6.0278836e-02   1.6966290e-01  -3.9049708e-02   7.3732517e-03
  -1.8862000e-03   3.0527650e-02  -1.3390509e-02   4.5879991e-03  -2.7352550e-02  -5.0718405e-03  -5.2667173e-03  -6.4240712e-02  -9.4523886e-02   7.9538393e-03  -3.8590587e-02   7.7691367e-02  -2.3630673e-01  -1.6311986e-02  -1.1848091e-01   3.1430030e-01   6.8141818e-02   1.1268416e-01  -1.6738812e-01  -1.6357946e-01   4.1645723e-02  -4.9492223e-01   2.0917910e-01  -1.4647608e-01   2.9195814e-01   2.8790337e-01   5.4862953e-01
  -3.1913593e-03  -8.8234433e-03   1.0768663e-02  -6.5881943e-03   1.5809394e-02  -1.7455757e-02   4.1816974e-03  -2.0415889e-02   4.2779784e-02   1.0170729e-02   9.1337457e-04  -3.4011172e-02   5.1650885e-02  -3.7996314e-02  -4.2242651e-02  -5.6821343e-02  -3.6331962e-02  -4.4950757e-02  -4.8719064e-02  -1.0462612e-01   1.8669103e-04   9.1549883e-02  -7.7291545e-02  -1.6739757e-02  -1.1087698e-01  -1.9306516e-01   9.4106987e-02
  -4.3011693e-03   2.2841004e-02   5.9566861e-03   3.2354522e-03  -1.2876381e-02  -1.7602889e-02   1.0735042e-02  -3.3432821e-02  -4.4770264e-02   1.8229160e-02  -4.6438771e-02   3.0454914e-02  -8.4588157e-02  -3.1992157e-02  -3.7332653e-02   9.6438088e-02   8.8247440e-03   1.3162190e-02  -1.7129150e-01   6.8686416e-02   4.7844892e-02   7.8610395e-02   9.3706619e-02  -1.0446693e-02   1.2573775e-03   1.3274968e-01  -8.5260753e-02
  -6.0458656e-03  -4.5588221e-03   1.0600814e-02   1.8155559e-02  -1.5840488e-02  -7.3479467e-04   3.3038433e-02   4.1401736e-02   9.4953343e-02  -4.1308989e-02   4.1227919e-02  -5.3804096e-02   9.1245635e-02  -1.8462705e-02  -6.0126269e-02   4.4022516e-02   2.8969829e-02  -5.0227910e-02   1.0548963e-02  -8.5624763e-02   1.1069760e-01   1.2424693e-01  -1.4024202e-02  -3.8051248e-02  -4.6738535e-02  -3.1973931e-03  -1.1065281e-03
   5.8208153e-03   5.6220304e-03  -5.0236797e-03  -2.1491670e-02  -1.3808228e-02  -1.5087827e-02  -1.7109864e-02  -7.4164277e-02   1.4962778e-02  -1.0841936e-02   3.7460432e-02  -1.4961852e-02  -8.5918359e-02  -1.6814859e-03   9.6649724e-02  -5.2163070e-02  -2.9437099e-02  -6.5072850e-02  -4.1609089e-02  -2.7787104e-02  -8.4575722e-02   5.4471643e-02  -8.4492820e-02  -1.4919646e-01  -8.6825052e-02   5.2348255e-02   5.4092596e-02
   1.9732406e-02  -2.5061731e-02  -1.7157354e-02  -2.1124339e-03  -6.7018432e-03   1.3302002e-01   2.2501361e-02   6.2587325e-02   1.6042475e-02   1.5125447e-02  -7.4302315e-02   1.2579832e-01  -2.4286313e-01  -6.1718336e-02  -4.6699893e-02   1.6430499e-01   2.3294050e-01   4.5754911e-02   1.4988887e-01  -1.4569247e-01   1.0773029e-01   1.1116759e-01  -7.4819106e-02  -3.4981660e-01  -8.8094421e-02  -2.2339557e-02   1.0813037e-01
   1.6124638e-03  -9.9467475e-03  -4.5364290e-02   7.5439280e-02   3.1747194e-02  -1.8336134e-03   2.2523459e-02  -1.8440272e-02   6.6395270e-02  -2.7970207e-02  -1.2012748e-01  -5.2790401e-02   1.6469031e-01  -1.2447082e-01   7.8933298e-02   1.4338079e-01   3.1215217e-02   3.4612406e-02   2.0230318e-01   1.1919268e-01  -4.2714482e-02   8.8943912e-02  -1.8214138e-01  -2.9943508e-01  -2.1828314e-01  -8.1079227e-03   1.4898777e-01
   1.1254918e-03  -1.0641759e-03  -1.8948473e-02   9.2355364e-03  -8.1146606e-03  -1.2343062e-01   1.6005207e-02   5.2902580e-02  -2.2026298e-01  -1.4882480e-01  -9.6298807e-03   1.1180512e-01   2.6978197e-01  -1.7534655e-01   5.1419711e-02  -2.1264634e-01  -3.9123150e-02   1.0375241e-01   2.2859004e-01   6.7766661e-02   2.5779665e-01  -8.9321137e-02   5.7333957e-01   1.5307718e-03   3.4812117e-01   1.7189401e-01   3.8480812e-01
   4.4116458e-03  -1.7063919e-02  -6.5687822e-04  -1.1187206e-02  -2.6014119e-02  -6.7299922e-02  -5.8808340e-02  -1.5947960e-03  -8.3093362e-02  -1.0754450e-01  -9.1534441e-02  -1.4352206e-01  -2.0842118e-02  -1.3221164e-01   8.1604980e-02  -1.6868948e-01  -5.0416421e-02  -6.2629827e-02   1.1845537e-01  -1.8739034e-01   7.8250050e-02   4.8342609e-02  -4.4420595e-02  -1.1884473e-01   1.0341582e-01   2.4363300e-01   9.8130482e-02
   6.6569074e-03  -2.2042797e-03  -3.7444169e-02  -2.3778085e-02   1.5190429e-02   1.0200682e-02  -4.7767716e-02   1.0212832e-02  -1.8365301e-01   4.7211775e-02  -1.7639008e-01  -3.6046565e-02  -2.5088451e-01  -2.0633201e-01   1.0686284e-01   1.0792630e-01  -9.7228838e-02   1.2407672e-01   4.1805249e-01   1.4866470e-01  -1.1553714e-01  -2.1548439e-01   3.3801399e-01  -2.3565962e-02   1.0839561e-01   1.5032835e-02   1.6092432e-02
  -1.0207884e-03   1.6955068e-02  -1.0088591e-02   1.0390500e-02  -2.3127806e-02  -1.4868912e-02  -2.9460415e-03  -7.9828369e-02  -6.3054232e-02   3.6595290e-02  -7.7754707e-03   7.4223497e-02  -1.9738864e-01  -6.8100403e-02  -6.4191715e-02   2.6455209e-01   3.7977989e-02   9.2900225e-02  -1.4828261e-01  -1.2785657e-01   5.3218077e-02  -4.1652552e-01   2.4928883e-01  -9.4958000e-02   2.5642125e-01   1.6927205e-01   4.9334219e-01
   7.5064375e-03   6.7047293e-04   5.0490209e-03  -5.5381345e-03  -1.5632107e-02  -4.5360043e-03  -2.2817725e-02  -1.3491862e-02   1.0389378e-02   8.1020312e-04  -9.9149972e-03  -3.6692007e-02   4.7281823e-02  -6.1892997e-02   9.4946976e-03  -6.2241447e-02  -7.8013372e-02  -2.9556172e-03   9.6003311e-04  -1.9783826e-02  -6.8728836e-02   1.5823339e-01  -5.1930228e-02   3.9844690e-02  -1.1376687e-01  -2.0591698e-01  -8.2941415e-02
   1.7476987e-03   2.7873457e-02   6.6138145e-03   9.4842183e-03  -6.7874056e-04  -1.9454257e-04   5.9263353e-03  -8.7460922e-03  -7.3383502e-02   2.0600745e-02  -6.2524734e-02   1.0095436e-01  -1.5241410e-01   7.3000742e-02  -4.3779199e-02  -7.0393824e-03   6.0331961e-02  -3.7791953e-02  -1.6975982e-01   9.4175491e-02   1.1864893e-01   1.4927164e-01   5.9761195e-02  -4.4766625e-02  -6.0549745e-02   1.7777732e-01  -2.6784321e-01
  -4.5603462e-03  -5.5303112e-04   9.1738050e-03   1.9899593e-02  -1.5171500e-02  -3.2434511e-02   2.8704866e-02   8.6298022e-02   1.5389488e-01  -8.7369164e-03   6.6830018e-02  -2.0502843e-02   5.8562573e-02   1.6668310e-02  -1.2782314e-01   3.4367930e-02   2.6112144e-02  -6.0433264e-02   5.8664517e-02  -1.0627586e-01   1.0501634e-01   1.2325833e-01   6.8960765e-02  -1.1071843e-01  -1.0837674e-02  -7.1080291e-02  -1.4972749e-01
   7.6326993e-03   1.3017359e-02  -4.6909545e-03  -3.0741182e-02  -2.6239079e-02  -2.8037193e-02  -1.9141241e-02  -7.4900698e-02   5.6691475e-02   1.4172478e-02   6.9948033e-02   7.2972183e-03  -1.6893135e-01   4.2697894e-02   5.1673992e-02  -7.3326719e-02  -4.8101839e-02  -7.4940332e-02  -5.1099516e-02  -7.8412531e-02  -1.2046499e-01   5.1118681e-02  -5.4984550e-02  -2.1319425e-01  -1.0575607e-01   9.6332276e-04   1.6218434e-02
   1.8528615e-02  -2.2998548e-02  -1.3417923e-02  -2.4922809e-03  -1.3450765e-02   1.4103533e-01   2.0779735e-02   4.0095230e-02   1.7083716e-02   2.1719663e-02  -6.6522268e-02   9.4126045e-02  -2.1982436e-01  -2.8926824e-02  -3.2915364e-02   1.1433085e-01   1.8161043e-01   3.0902421e-02   1.1402364e-01  -1.1268392e-01   4.8727536e-02   1.1306771e-01  -1.0867708e-01  -3.0511667e-01  -7.2188155e-02  -6.0193595e-02   4.7294036e-02
   1.1801324e-03  -8.1345648e-03  -3.7032406e-02   5.2939096e-02   3.3310421e-02  -3.3288949e-03   1.4341700e-02   2.8503250e-03   7.4645464e-02  -9.4392607e-03  -3.4212202e-02  -2.1002867e-03   1.0736166e-01  -1.0366900e-01  -5.5704899e-02   1.6092927e-01   5.5125093e-02   2.7648022e-02   1.3490134e-01   8.3730365e-02   3.7707769e-02   5.2398321e-02  -8.8988264e-02  -1.9502092e-01  -3.3369364e-01  -1.3734006e-01   8.6905773e-02
  -1.3335864e-03   5.6936126e-03  -2.3984836e-02   6.5388003e-03  -1.0948682e-02  -1.3549170e-01   1.0691897e-02   3.8837342e-02  -2.0564690e-01  -1.5917785e-01   3.6485792e-02   1.1976175e-01   2.7111859e-01  -1.1912150e-01   2.1786795e-02  -1.8617082e-01  -1.0909633e-01   8.5721378e-02   1.9929504e-01   6.0261753e-02   1.8395193e-01  -4.4363509e-02   5.5581116e-01   4.3693527e-02   3.0749127e-01   1.7551843e-01   3.2536953e-01
   3.7298081e-03  -1.1793039e-02   5.1596837e-03  -1.7971316e-02  -2.7086037e-02  -3.3511886e-02  -6.5245812e-02   9.9014341e-03  -5.6047310e-02  -5.9701050e-02  -1.3845889e-02  -6.5606674e-02  -3.8749739e-02  -2.7350130e-02  -3.7385272e-03  -1.2085651e-01  -1.1437187e-02  -1.2216102e-01  -4.1004551e-02  -1.8421562e-01   2.4767696e-02   7.6820638e-03  -3.3033068e-02  -6.8144035e-02   1.0067867e-01   1.5659451e-01   3.1160391e-02
   7.2447391e-03  -3.8580565e-03  -2.9808773e-02  -1.2847217e-02   1.5896602e-03   9.7597353e-03  -4.6999607e-02   9.4630180e-03  -1.6709665e-01   2.9727200e-02  -1.6238849e-01  -3.3229774e-02  -2.2869060e-01  -1.7009008e-01   1.0534532e-01   6.5309282e-02  -1.2428627e-01   1.4545548e-01   4.1369600e-01   2.1581632e-01  -6.4176414e-02  -2.0309323e-01   3.4499335e-01   3.9980020e-03   4.5668890e-02   7.3958096e-02   1.9786301e-02
  -8.7290084e-05   2.5835034e-03  -5.8981829e-03   1.4964290e-02  -1.6203308e-02  -2.2813411e-02   1.8797181e-03  -8.8721459e-02  -3.0172098e-02   6.5380997e-02   2.6120505e-02   7.1865886e-02  -1.4775349e-01  -1.0485763e-01  -1.7956712e-02   2.0436011e-01   1.7503529e-02   6.8279011e-02  -1.2734512e-01  -9.3029550e-02   7.1891966e-02  -3.1825331e-01   2.7534222e-01  -3.9327863e-02   1.9634655e-01   5.0379961e-02   4.1589589e-01
   1.5472867e-02   8.7123930e-03  -1.1017103e-03  -3.5246439e-03  -3.9313389e-02   6.9121457e-03  -4.2444584e-02  -5.6572651e-03  -1.9346070e-02  -5.6662699e-03  -1.7555332e-02  -3.5950197e-02   3.8796421e-02  -7.0119699e-02   5.0336806e-02  -5.6918580e-02  -1.0044685e-01   3.4289668e-02   4.6954440e-02   4.5593126e-02  -1.1376902e-01   1.8872544e-01  -2.5366205e-02   7.9812722e-02  -1.0594594e-01  -1.9277967e-01  -2.0212784e-01
   5.5736784e-03   2.8037720e-02   6.4379089e-03   1.1817185e-02   6.8493939e-03   1.0808272e-02   3.1134992e-04   1.5838837e-02  -7.7863367e-02   1.7810976e-02  -6.2083127e-02   1.2537248e-01  -1.7645473e-01   1.3205175e-01  -4.5437970e-02  -8.1747229e-02   8.3589417e-02  -7.1834535e-02  -1.3377682e-01   9.4089082e-02   1.3576630e-01   1.8823155e-01   2.5560285e-02  -4.1499695e-02  -1.0027348e-01   1.8092791e-01  -3.5206778e-01
  -2.2030498e-03   3.0159193e-03   6.8712655e-03   1.7696101e-02  -1.4178810e-02  -5.1880423e-02   1.8821921e-02   1.0212921e-01   1.7490460e-01   1.4324788e-02   7.6386729e-02   1.1606168e-02   7.7682140e-03   4.2449793e-02  -1.5651399e-01   1.4780371e-02   2.0736451e-02  -6.0202009e-02   8.7489073e-02  -1.1382393e-01   8.1253772e-02   1.0076486e-01   1.1955114e-01  -1.6441685e-01   1.7357464e-02  -1.0493970e-01  -2.3684417e-01
   7.2961924e-03   1.5932889e-02  -4.5737314e-03  -3.2658006e-02  -3.0556318e-02  -3.4761632e-02  -1.6454562e-02  -6.0670114e-02   7.9193907e-02   3.1658981e-02   7.8531908e-02   2.9105703e-02  -1.9284783e-01   6.8411081e-02  -1.7824758e-03  -7.1199768e-02  -5.1969692e-02  -6.5713487e-02  -4.8876214e-02  -9.9166009e-02  -1.0770588e-01   3.5303935e-02  -1.8861993e-02  -2.0845553e-01  -1.0811979e-01  -2.6551861e-02  -2.1871241e-02
   1.5761535e-02  -2.0090658e-02  -8.9290186e-03  -4.7513603e-03  -1.9364187e-02   1.3388105e-01   2.0555939e-02   2.1212709e-02   1.5722329e-02   2.4471476e-02  -5.3067270e-02   7.1208990e-02  -1.8006518e-01  -2.9069729e-03  -2.2149576e-02   6.0058588e-02   1.3718785e-01   1.5188886e-02   8.5241561e-02  -8.1947302e-02   9.4382147e-04   1.1373890e-01  -1.0288887e-01  -2.6481518e-01  -4.3558033e-02  -1.0591019e-01   6.3567190e-03
   2.9860421e-04  -6.1330097e-03  -2.7669144e-02   2.9297763e-02   3.3529514e-02  -8.1201402e-03   7.1809810e-03   2.0971529e-02   7.2271793e-02   6.2800493e-03   4.2086976e-02   3.7343409e-02   4.4664660e-02  -8.7607299e-02  -1.6482012e-01   1.6214307e-01   6.8510858e-02   1.1206500e-02   7.9210272e-02   5.1614961e-02   1.1589095e-01   7.0087125e-03  -4.5977300e-04  -8.2127614e-02  -4.0198988e-01  -2.3721897e-01   2.8065509e-02
  -2.6659341e-03   1.0791524e-02  -2.7543003e-02   4.4742861e-03  -1.0011236e-02  -1.3593181e-01   7.9212292e-03   2.6689793e-02  -1.7211148e-01  -1.5980008e-01   6.3640777e-02   1.2820818e-01   2.4978556e-01  -7.0827119e-02  -6.9277925e-03  -1.4852128e-01  -1.6253213e-01   6.4363210e-02   1.7006589e-01   4.3706731e-02   1.1376985e-01   8.2434719e-03   5.0758631e-01   7.0081017e-02   2.5092153e-01   1.7033147e-01   2.6207997e-01
   3.2682604e-03  -6.8975361e-03   1.0894085e-02  -2.2392702e-02  -2.5412201e-02   5.2759824e-03  -6.7339616e-02   2.3859991e-02  -2.9938801e-02  -7.5233220e-03   4.2845060e-02   9.9130121e-03  -4.7195165e-02   6.8680662e-02  -7.0375827e-02  -6.7819265e-02   2.8421100e-02  -1.5099855e-01  -1.6392727e-01  -1.6323451e-01  -2.6002024e-02  -2.8270949e-02  -1.7486146e-02  -2.6580003e-02   1.0412404e-01   7.4641572e-02  -3.1840810e-02
   7.5167671e-03  -5.1673771e-03  -1.9263843e-02  -7.8856607e-04  -1.4718797e-02   1.1411328e-02  -4.3197098e-02   6.9308457e-03  -1.4617505e-01   1.3426334e-02  -1.3899766e-01  -3.0756357e-02  -2.0034608e-01  -1.1944097e-01   9.8361117e-02   2.3128953e-02  -1.3936553e-01   1.4923671e-01   3.8385154e-01   2.6538086e-01  -8.8599456e-03  -1.8825349e-01   3.2455132e-01   2.1055426e-02  -1.3679584e-02   1.3360399e-01   1.7747977e-02
   7.5429209e-04  -1.0032855e-02  -1.0294349e-03   1.7866387e-02  -8.1256455e-03  -2.7442044e-02   8.2654394e-03  -9.0341727e-02  -9.7660524e-04   9.1830710e-02   5.6120405e-02   7.2492124e-02  -1.0068905e-01  -1.2352978e-01   1.3396599e-02   1.4435760e-01   9.6750879e-03   4.3444069e-02  -1.0915699e-01  -6.5585761e-02   9.6756706e-02  -2.1471175e-01   2.8687746e-01   1.4334872e-02   1.2301879e-01  -5.0731083e-02   3.2541236e-01
   2.0000949e-02   1.4344103e-02  -6.8121077e-03  -1.2161473e-03  -5.2502782e-02   1.5342490e-02  -5.2816343e-02   2.3576969e-03  -4.2536701e-02  -8.5855225e-03  -2.2196399e-02  -3.1849655e-02   2.9024734e-02  -6.3440865e-02   7.5421486e-02  -4.4164797e-02  -1.0153306e-01   6.0298359e-02   8.0564045e-02   8.3022229e-02  -1.2915746e-01   1.8424671e-01  -1.8683207e-03   9.6910806e-02  -9.1097269e-02  -1.5847131e-01  -2.5733350e-01
   6.8165156e-03   2.4540037e-02   5.6037445e-03   1.1009303e-02   9.5275990e-03   1.5065017e-02  -4.4675921e-03   3.6457115e-02  -6.2919016e-02   1.1602301e-02  -4.7412802e-02   1.0830319e-01  -1.6068221e-01   1.4745997e-01  -4.3447174e-02  -1.2131630e-01   7.9903205e-02  -8.8086859e-02  -7.6327256e-02   7.4504543e-02   1.1051534e-01   1.9540570e-01  -5.1650865e-03  -1.0150298e-02  -1.1505178e-01   1.5019940e-01  -3.4945616e-01
   2.6136847e-04   5.3902305e-03   4.2297996e-03   1.3157116e-02  -1.3362876e-02  -5.9140405e-02   6.6551530e-03   9.2172533e-02   1.6251070e-01   2.6291220e-02   7.0936244e-02   3.6932726e-02  -4.6035636e-02   5.5484941e-02  -1.5168420e-01  -7.2520209e-03   1.4499329e-02  -4.9761444e-02   9.7642723e-02  -1.0750159e-01   4.9148436e-02   6.4365002e-02   1.3640458e-01  -1.8774233e-01   3.6017689e-02  -1.0612907e-01  -2.5748628e-01
   5.5385637e-03   1.5151750e-02  -4.6398188e-03  -2.9000049e-02  -2.8060813e-02  -3.6141613e-02  -1.1167939e-02  -3.8933388e-02   8.2449845e-02   4.0095881e-02   6.7275625e-02   4.7184694e-02  -1.6961086e-01   7.4439502e-02  -4.9677393e-02  -5.3277330e-02  -4.3980676e-02  -4.3928842e-02  -3.9788527e-02  -9.3489292e-02  -6.5533352e-02   1.3446187e-02   1.4454812e-02  -1.5584859e-01  -9.4010575e-02  -3.4312892e-02  -5.1843209e-02
   1.2734269e-02  -1.7772998e-02  -4.8861825e-03  -8.5479953e-03  -2.4063616e-02   1.1475351e-01   2.1133702e-02   7.1951171e-03   1.2969156e-02   2.4309421e-02  -3.6163060e-02   5.3263600e-02  -1.2821222e-01   1.7529810e-02  -1.7984524e-02   6.2976573e-03   9.8912002e-02   7.9971715e-04   6.2844427e-02  -5.2195985e-02  -3.5705182e-02   1.1404509e-01  -6.9840772e-02  -2.2639091e-01  -8.0428102e-03  -1.5816079e-01  -1.4232419e-02
  -8.0201384e-04  -4.2670778e-03  -1.8699389e-02   7.8299390e-03   3.2511580e-02  -1.4644579e-02   1.6217433e-03   3.2874305e-02   6.1106935e-02   1.7608239e-02   9.9499456e-02   6.1614069e-02  -1.6424992e-02  -7.7859574e-02  -2.3623113e-01   1.4747452e-01   7.1141129e-02  -7.4074324e-03   4.1205850e-02   2.7126638e-02   1.8265394e-01  -3.8492518e-02   7.1592453e-02   2.3398185e-02  -4.2203577e-01  -3.0124435e-01  -1.8183743e-02
  -2.6009734e-03   1.3509098e-02  -2.9971183e-02   3.4217123e-03  -6.6503742e-03  -1.2814636e-01   7.0558678e-03   1.7365762e-02  -1.2714710e-01  -1.5275260e-01   7.5001170e-02   1.3205490e-01   2.1478931e-01  -3.3116427e-02  -3.3581940e-02  -1.0623223e-01  -2.0128030e-01   4.4765024e-02   1.4475533e-01   2.4278384e-02   5.1495955e-02   6.4300087e-02   4.3719932e-01   8.5431337e-02   1.8283886e-01   1.6053385e-01   1.9959913e-01
   3.1492426e-03  -2.9921055e-03   1.5697613e-02  -2.4073244e-02  -2.2340038e-02   4.3243727e-02  -6.5321905e-02   3.7976832e-02  -7.9998679e-03   4.0113599e-02   7.3663823e-02   7.3569543e-02  -4.6432254e-02   1.4429987e-01  -1.1169218e-01  -1.8699817e-02   6.3349803e-02  -1.5342505e-01  -2.3953650e-01  -1.2950369e-01  -7.0299466e-02  -5.7538560e-02  -7.6753601e-04   2.9626006e-03   1.1289392e-01   8.4321631e-03  -8.2627127e-02
   7.6243934e-03  -6.0513569e-03  -7.8721889e-03   1.0683350e-02  -3.1512411e-02   1.4113756e-02  -3.7530611e-02   2.5934238e-03  -1.2490873e-01   5.3079068e-04  -1.1021201e-01  -2.9456821e-02  -1.6816727e-01  -6.1500096e-02   8.8846786e-02  -1.3307521e-02  -1.4186338e-01   1.3693473e-01   3.3410955e-01   2.9476178e-01   4.2944767e-02  -1.7568950e-01   2.8058806e-01   2.8713932e-02  -6.6835247e-02   1.8982815e-01   1.0427708e-02
   1.4172241e-03  -1.9219759e-02   4.2628903e-03   1.9000339e-02  -8.8825952e-05  -2.8112182e-02   1.4847082e-02  -8.4845432e-02   2.1291755e-02   1.1380074e-01   7.6926580e-02   7.6278882e-02  -6.5034714e-02  -1.2458595e-01   2.7452658e-02   9.1438592e-02   1.4233084e-02   2.1572278e-02  -9.5413859e-02  -4.8681418e-02   1.2435064e-01  -1.1664406e-01   2.8385174e-01   6.2109976e-02   4.7096676e-02  -1.2257141e-01   2.2918305e-01
   2.1138237e-02   1.7231547e-02  -1.1408878e-02   8.1093141e-04  -5.5009183e-02   2.0171048e-02  -5.4068548e-02   9.6465021e-03  -5.7321727e-02  -8.5098724e-03  -2.4348356e-02  -2.5068146e-02   2.0058327e-02  -4.4803220e-02   8.4012302e-02  -2.8110989e-02  -8.3939513e-02   7.1039626e-02   9.7547293e-02   9.0752425e-02  -1.1674601e-01   1.5192086e-01   1.4750217e-02   9.0853510e-02  -7.2868974e-02  -1.0969176e-01  -2.5484324e-01
   5.6249495e-03   1.9116707e-02   4.3887657e-03   8.1585215e-03   8.2495345e-03   1.4024890e-02  -7.1054123e-03   5.0966201e-02  -3.6023973e-02   4.0957116e-03  -2.4370877e-02   6.2938763e-02  -1.1668634e-01   1.2965747e-01  -3.9640798e-02  -1.2696304e-01   5.7042404e-02  -8.9144912e-02  -1.1628538e-02   4.3205645e-02   6.0882478e-02   1.7578196e-01  -2.9358680e-02   3.4150895e-02  -1.0649520e-01   9.9151129e-02  -2.8565728e-01
   2.1620707e-03   6.2855915e-03   1.8512156e-03   8.1072572e-03  -1.3165291e-02  -5.6647900e-02  -4.6861609e-03   6.4200515e-02   1.2681454e-01   2.8142668e-02   5.3668014e-02   5.2235787e-02  -8.9921479e-02   5.5636695e-02  -1.2458098e-01  -2.5361684e-02   8.4067291e-03  -3.1799570e-02   9.2118967e-02  -8.9263900e-02   1.7541754e-02   2.2786768e-02   1.2462773e-01  -1.7608355e-01   4.4760209e-02  -8.1918404e-02  -2.2116395e-01
   3.2050300e-03   1.1950192e-02  -4.7476959e-03  -2.2196097e-02  -2.1084389e-02  -3.3939512e-02  -5.5594574e-03  -1.7036025e-02   7.0571478e-02   4.0224138e-02   4.3582635e-02   5.9217845e-02  -1.1824463e-01   6.3932860e-02  -8.1976591e-02  -2.8997860e-02  -2.9543136e-02  -1.7173017e-02  -2.8341084e-02  -6.9476377e-02  -1.5213688e-02  -8.2754278e-03   3.8157951e-02  -8.1787629e-02  -6.6825940e-02  -2.9455544e-02  -6.7955543e-02
   1.0048491e-02  -1.6381052e-02  -1.9301018e-03  -1.2888237e-02  -2.7439048e-02   8.7500394e-02   2.1015184e-02  -2.2797211e-03   9.0924435e-03   2.2890151e-02  -1.7080911e-02   3.4984009e-02  -6.8581830e-02   3.6150592e-02  -2.1842881e-02  -4.2857009e-02   6.3439360e-02  -1.1106421e-02   4.1958191e-02  -2.0558048e-02  -6.4059676e-02   1.1279910e-01  -2.5827053e-02  -1.8295705e-01   2.7565768e-02  -2.1135438e-01  -2.0928988e-02
  -1.9486592e-03  -2.6548637e-03  -1.0964128e-02  -9.3719362e-03   3.0067267e-02  -2.1307902e-02  -1.8520133e-03   3.6858860e-02   4.3798875e-02   2.3805250e-02   1.3417743e-01   6.9993199e-02  -7.0740291e-02  -7.4118534e-02  -2.6583306e-01   1.1888295e-01   6.4446905e-02  -2.3560917e-02   2.1749511e-02   1.1385396e-02   2.3136489e-01  -7.7343484e-02   1.1916700e-01   1.1014794e-01  -3.9836897e-01  -3.2835554e-01  -4.6335696e-02
  -1.2814792e-03   1.3989974e-02  -3.1394371e-02   3.8053360e-03  -2.1842803e-03  -1.1477872e-01   7.1506628e-03   1.0934156e-02  -7.7738388e-02  -1.3976109e-01   7.5050450e-02   1.2683486e-01   1.7403982e-01  -5.3029286e-03  -5.7319485e-02  -6.4953182e-02  -2.2840751e-01   2.9780784e-02   1.2293827e-01   7.5244885e-03  -1.4629690e-03   1.1822167e-01   3.5090385e-01   9.6072562e-02   1.0690129e-01   1.5006408e-01   1.3742050e-01
   3.3984473e-03  -4.3486276e-04   1.9144249e-02  -2.3096419e-02  -1.9151614e-02   7.5931190e-02  -5.9471663e-02   5.0109107e-02   8.0369556e-03   7.6839799e-02   7.8872584e-02   1.1990112e-01  -3.7855392e-02   1.9323745e-01  -1.2617581e-01   1.9775729e-02   8.9459877e-02  -1.3550522e-01  -2.6691474e-01  -8.8531614e-02  -1.0630029e-01  -7.8861224e-02   1.4652959e-02   2.0176448e-02   1.2404006e-01  -3.6976536e-02  -1.1624136e-01
   7.6572557e-03  -6.4408839e-03   2.7213879e-03   2.0243256e-02  -4.6935533e-02   1.6817198e-02  -3.0813546e-02  -3.2270626e-03  -1.0575629e-01  -7.6520571e-03  -7.9287061e-02  -2.9893151e-02  -1.3357027e-01  -2.6781208e-03   7.9072740e-02  -4.0289458e-02  -1.3267818e-01   1.1114720e-01   2.7009039e-01   3.0335292e-01   8.5557401e-02  -1.6791116e-01   2.1839291e-01   2.9788057e-02  -1.1245939e-01   2.3866612e-01  -1.0885471e-03
   1.8570734e-03  -2.4166878e-02   9.6647578e-03   1.8524846e-02   7.0495637e-03  -2.5018526e-02   2.0178934e-02  -7.3074947e-02   3.5219411e-02   1.2956990e-01   8.5490717e-02   8.1782167e-02  -4.4994641e-02  -1.1139140e-01   2.5391567e-02   4.9342143e-02   2.8217970e-02   4.4757884e-03  -8.5736839e-02  -4.2608099e-02   1.4960323e-01  -3.1122443e-02   2.6694607e-01   1.0211156e-01  -2.2152410e-02  -1.6000196e-01   1.3342591e-01
   1.9459245e-02   1.7535981e-02  -1.4440209e-02   2.1983515e-03  -4.8531158e-02   2.1548350e-02  -4.7773046e-02   1.5162154e-02  -6.3498115e-02  -6.8171034e-03  -2.4504309e-02  -1.6807299e-02   1.3061271e-02  -1.8225029e-02   7.8427130e-02  -1.2792348e-02  -5.3633411e-02   6.5129300e-02   9.7850302e-02   7.2294344e-02  -8.3900966e-02   1.0214415e-01   2.1438535e-02   6.6250808e-02  -5.4518602e-02  -5.3697722e-02  -2.0850062e-01
   2.5365278e-03   1.3485568e-02   3.0747485e-03   4.3489958e-03   4.4979970e-03   9.9838985e-03  -6.8737081e-03   5.8872573e-02  -5.0740023e-03  -2.9102087e-03  -4.4542754e-04   5.8376046e-03  -5.9141240e-02   9.2381401e-02  -3.5854774e-02  -1.0523749e-01   2.5636200e-02  -7.9565472e-02   4.7848835e-02   8.0040518e-03   5.4026760e-03   1.3766594e-01  -4.4704618e-02   7.5572828e-02  -7.9708279e-02   4.2423689e-02  -1.9109140e-01
   3.0638459e-03   5.8621298e-03   2.7645934e-04   4.0445939e-03  -1.3872146e-02  -4.7823908e-02  -1.2893092e-02   2.7746525e-02   7.9982034e-02   2.2488436e-02   2.8814098e-02   5.6852485e-02  -1.1599653e-01   4.5223050e-02  -8.7902749e-02  -3.5603553e-02   2.7915698e-03  -1.0628085e-02   7.5067066e-02  -6.3056092e-02  -7.1610458e-03  -1.6020964e-02   9.3503779e-02  -1.3249752e-01   4.4207307e-02  -4.2319521e-02  -1.4662323e-01
   1.0159391e-03   7.6551484e-03  -4.7322532e-03  -1.4518898e-02  -1.2153030e-02  -3.0032092e-02  -1.4657200e-03  -3.3376604e-04   4.9726749e-02   3.4304588e-02   1.5720166e-02   6.3971066e-02  -5.8365386e-02   4.2370175e-02  -9.4035799e-02  -6.9444133e-03  -1.4744568e-02   7.8462806e-03  -1.7850879e-02  -3.6637983e-02   2.6171520e-02  -2.5139687e-02   4.9291381e-02  -1.0399368e-02  -3.2030936e-02  -1.9132397e-02  -6.8292770e-02
   7.7140330e-03  -1.5460488e-02  -1.1116111e-04  -1.6710861e-02  -2.9393589e-02   5.6452056e-02   1.8709062e-02  -8.4563174e-03   3.9058479e-03   2.2015456e-02   2.5589849e-03   1.2828301e-02  -5.8324369e-03   5.6597821e-02  -3.2664221e-02  -8.3671682e-02   2.8548519e-02  -2.0701530e-02   1.6375150e-02   1.4887133e-02  -8.6919981e-02   1.0766758e-01   1.3489590e-02  -1.2919846e-01   5.7819802e-02  -2.5676403e-01  -2.3016224e-02
  -3.0260450e-03  -1.2809225e-03  -4.8343678e-03  -2.1347934e-02   2.5897194e-02  -2.6668834e-02  -2.8612981e-03   3.2553201e-02   2.3385467e-02   2.4856255e-02   1.4650516e-01   6.4451528e-02  -1.1477387e-01  -7.4897868e-02  -2.5631794e-01   7.9803840e-02   5.1256105e-02  -3.5057448e-02   1.8149703e-02   2.9963729e-03   2.5834748e-01  -1.0506567e-01   1.3830342e-01   1.7094459e-01  -3.3935056e-01  -3.2178992e-01  -5.4701936e-02
   8.3395703e-04   1.2963590e-02  -3.1708423e-02   5.7889048e-03   2.3414483e-03  -9.7694348e-02   7.4153190e-03   6.9998424e-03  -2.9879723e-02  -1.2239258e-01   6.8121702e-02   1.1060973e-01   1.3365745e-01   1.4603751e-02  -7.7120949e-02  -2.8818621e-02  -2.4601546e-01   2.0024084e-02   1.0213595e-01  -3.1674942e-03  -4.4863020e-02   1.6379813e-01   2.5462908e-01   1.0631516e-01   2.7343814e-02   1.4246980e-01   7.2843475e-02
   3.9616821e-03   6.4618676e-04   2.1132405e-02  -1.9937419e-02  -1.6870489e-02   1.0029458e-01  -5.0213362e-02   5.8578700e-02   1.7731955e-02   9.8909317e-02   6.2591649e-02   1.4702911e-01  -2.3644092e-02   2.1391292e-01  -1.1650103e-01   4.3509121e-02   1.0475384e-01  -1.0412049e-01  -2.5255612e-01  -4.5635925e-02  -1.3358144e-01  -9.1884859e-02   2.6954706e-02   2.6687035e-02   1.3354208e-01  -6.1082020e-02  -1.3108924e-01
   7.6550346e-03  -6.2683240e-03   1.1344954e-02   2.6969816e-02  -5.9528414e-02   1.8596842e-02  -2.3542492e-02  -9.9332770e-03  -8.9819506e-02  -1.0648975e-02  -4.8734467e-02  -3.2187366e-02  -9.7605783e-02   5.1698528e-02   7.0566481e-02  -5.5825653e-02  -1.1377060e-01   7.5210923e-02   1.9723775e-01   2.9225901e-01   1.1521333e-01  -1.6557319e-01   1.4420080e-01   2.7871346e-02  -1.5009956e-01   2.7663476e-01  -1.5442459e-02
   2.0448685e-03  -2.4820019e-02   1.4808761e-02   1.6757178e-02   1.2739478e-02  -1.9049281e-02   2.3060361e-02  -5.6454913e-02   4.0955260e-02   1.3794737e-01   8.1153683e-02   8.6457694e-02  -4.0648593e-02  -8.9180926e-02   1.0896972e-02   1.9338223e-02   4.6919556e-02  -7.2599003e-03  -7.8619515e-02  -4.5482666e-02   1.6708717e-01   3.7963135e-02   2.3766627e-01   1.3395708e-01  -7.7403282e-02  -1.6336876e-01   4.3500680e-02
   1.5827947e-02   1.5761798e-02  -1.5682618e-02   2.8604336e-03  -3.5899622e-02   2.0108030e-02  -3.6304956e-02   1.7876794e-02  -6.2088110e-02  -5.1727270e-03  -2.2974406e-02  -8.4791385e-03   8.3117362e-03   1.2127200e-02   6.2750726e-02  -1.4321689e-03  -1.8080810e-02   4.3734047e-02   8.4739019e-02   3.4627256e-02  -4.0737878e-02   4.6115167e-02   1.6375644e-02   3.0853380e-02  -3.8501115e-02   2.7910701e-03  -1.3534408e-01
  -1.6718990e-03   8.9750279e-03   1.8709404e-03   4.5511753e-04  -1.0912203e-04   5.1857599e-03  -3.7469628e-03   6.0963679e-02   2.3275640e-02  -8.3834921e-03   1.7250184e-02  -4.7737124e-02  -1.9831635e-03   4.8874797e-02  -3.3551277e-02  -6.5639296e-02  -4.2521917e-03  -6.4450897e-02   9.2900195e-02  -2.4299846e-02  -4.1368240e-02   9.0786698e-02  -4.9891128e-02   1.0177793e-01  -4.2115525e-02  -7.6236701e-03  -9.3449026e-02
   2.8254376e-03   4.5683576e-03  -1.0912105e-04   1.8469698e-03  -1.5568771e-02  -3.5961215e-02  -1.6773329e-02  -8.1518742e-03   3.3449069e-02   1.2630691e-02   7.6561059e-04   5.2357671e-02  -1.2229836e-01   2.7978263e-02  -5.2471846e-02  -3.6838120e-02  -2.4888959e-03   8.8774907e-03   5.1106524e-02  -3.3868847e-02  -2.1499638e-02  -4.6210553e-02   5.4192131e-02  -6.6994890e-02   3.5765390e-02   2.5871176e-03  -5.6258245e-02
  -5.6831875e-04   3.3700565e-03  -4.4767555e-03  -7.5972110e-03  -3.3717298e-03  -2.5882618e-02   5.6796219e-05   8.7145352e-03   2.6253031e-02   2.5253513e-02  -9.2387734e-03   6.1368204e-02  -5.6743720e-03   1.5860826e-02  -8.6508487e-02   6.9238387e-03  -4.8380306e-03   2.6426643e-02  -1.0210556e-02  -3.5026126e-03   4.9030630e-02  -3.4417728e-02   4.8906343e-02   4.1526609e-02   4.0427847e-03  -8.5889572e-03  -5.4837009e-02
   5.3829359e-03  -1.4240294e-02   9.9723905e-04  -1.9325449e-02  -2.9763547e-02   2.6023376e-02   1.3351914e-02  -1.2939836e-02  -2.8016565e-03   2.3096492e-02   2.0161438e-02  -1.3262545e-02   5.4871888e-02   8.0222411e-02  -4.7127492e-02  -1.1268871e-01  -4.7607535e-03  -2.9293524e-02  -1.8424518e-02   5.3537622e-02  -1.0539893e-01   9.6310874e-02   3.6399844e-02  -6.5256268e-02   8.0073795e-02  -2.8466886e-01  -2.8641784e-02
  -3.9689218e-03  -6.5891877e-05  -3.4491713e-04  -2.8067486e-02   1.9788036e-02  -2.9609179e-02  -1.1960184e-03   2.0781987e-02   2.8732388e-03   2.1326359e-02   1.3979781e-01   4.8844878e-02  -1.4639478e-01  -7.8150001e-02  -2.1546143e-01   3.4900244e-02   3.5245553e-02  -4.1612784e-02   2.5735786e-02  -1.0019933e-03   2.6288795e-01  -1.1944315e-01   1.2896872e-01   2.0248661e-01  -2.5540156e-01  -2.8782995e-01  -4.5021305e-02
   3.1398589e-03   1.1372631e-02  -3.0661188e-02   9.1094483e-03   6.2445926e-03  -7.8151810e-02   7.5137762e-03   4.9741176e-03   1.1864397e-02  -1.0221896e-01   5.7488142e-02   8.4706796e-02   9.7731612e-02   2.8251458e-02  -9.1631312e-02  -1.5588203e-04  -2.5423107e-01   1.4277138e-02   8.0042930e-02  -7.2921706e-03  -7.8624778e-02   1.9516958e-01   1.5512076e-01   1.1634756e-01  -5.0343319e-02   1.4030116e-01   3.7332490e-03
   4.7262873e-03   3.1566762e-04   2.1779810e-02  -1.5340081e-02  -1.6118175e-02   1.1461544e-01  -3.8224061e-02   6.2400298e-02   2.1669042e-02   1.0509690e-01   3.1419047e-02   1.5586865e-01  -6.3233401e-03   2.0858401e-01  -8.8343958e-02   5.1003632e-02   1.0882512e-01  -6.6057981e-02  -2.0769672e-01  -5.3518454e-03  -1.5262829e-01  -9.7120181e-02   3.5021834e-02   2.5435014e-02   1.3719940e-01  -6.6653262e-02  -1.2864467e-01
   7.6223555e-03  -5.4726918e-03   1.7312263e-02   3.0335160e-02  -6.8241838e-02   1.8803331e-02  -1.5972403e-02  -1.6778371e-02  -7.7172151e-02  -8.7131025e-03  -2.0409582e-02  -3.5962955e-02  -6.1411626e-02   9.7577562e-02   6.4195400e-02  -5.9621764e-02  -8.7734595e-02   3.2864566e-02   1.2070455e-01   2.6395286e-01   1.3001645e-01  -1.6795530e-01   6.4699718e-02   2.6437588e-02  -1.7965810e-01   3.0104666e-01  -3.1211591e-02
   1.9485134e-03  -2.1714148e-02   1.9299096e-02   1.4079475e-02   1.6695529e-02  -1.1526103e-02   2.2800569e-02  -3.6830500e-02   3.9821025e-02   1.3837888e-01   6.5399822e-02   8.7430797e-02  -4.8941395e-02  -6.3878336e-02  -1.1034170e-02   9.3930701e-04   6.5024821e-02  -1.4086879e-02  -7.2266399e-02  -5.4085256e-02   1.7226596e-01   8.9239408e-02   1.9827863e-01   1.5802669e-01  -1.1361922e-01  -1.3722452e-01  -3.6253666e-02
   1.1188954e-02   1.2598554e-02  -1.5138267e-02   2.9621778e-03  -2.0352835e-02   1.6738570e-02  -2.2268463e-02   1.7008055e-02  -5.4919149e-02  -5.0042928e-03  -1.9888862e-02  -1.3045234e-03   5.4250161e-03   4.2541995e-02   4.1636553e-02   4.0235553e-03   1.5550363e-02   1.0226164e-02   6.3544578e-02  -1.3612854e-02   2.6692946e-03  -6.1465250e-03  -5.2962509e-04  -6.5631991e-03  -2.6065034e-02   5.4335424e-02  -5.2148686e-02
  -6.1438434e-03   6.3382856e-03   8.7390360e-04  -2.9230101e-03  -4.1921545e-03   1.1924448e-03   1.6099675e-03   5.8755463e-02   4.4475578e-02  -1.2190321e-02   2.3641040e-02  -8.7037353e-02   4.4190577e-02   9.4738744e-03  -3.3613333e-02  -1.8451821e-02  -2.5560843e-02  -4.8348317e-02   1.1795569e-01  -4.8405465e-02  -7.1208781e-02   4.4539914e-02  -4.4958676e-02   1.0647755e-01  -1.9820001e-03  -4.2813409e-02  -1.2945874e-02
   1.5814737e-03   2.9260266e-03   8.5966218e-04   1.7323212e-03  -1.8133969e-02  -2.3543475e-02  -1.6265431e-02  -3.6481377e-02  -3.9460839e-03   1.7746788e-03  -2.6520193e-02   4.1773996e-02  -1.1192966e-01   8.0167682e-03  -2.5297977e-02  -3.0338686e-02  -7.7880086e-03   2.2388438e-02   2.4968204e-02  -6.6794233e-03  -2.4637154e-02  -6.4660919e-02   1.7671242e-02   5.7133744e-03   2.1474596e-02   4.4492419e-02   2.8837499e-02
  -1.3788757e-03  -1.3701991e-04  -3.9487343e-03  -2.2858859e-03   3.8961009e-03  -2.2314457e-02  -1.1823972e-03   1.0462682e-02   5.3270772e-03   1.5853083e-02  -2.6756023e-02   5.2472550e-02   3.0246928e-02  -1.0164639e-02  -6.4148052e-02   1.0011492e-02  -3.1981067e-03   3.6214984e-02  -6.0865303e-03   2.3694858e-02   5.1631003e-02  -3.5348936e-02   4.1190847e-02   6.6562678e-02   3.5166958e-02  -4.4666932e-04  -3.2441824e-02
   2.6329776e-03  -1.2105913e-02   2.0652666e-03  -2.0603710e-02  -2.8395331e-02   1.5423771e-04   5.0033172e-03  -1.7271041e-02  -1.0868520e-02   2.6807923e-02   3.2373713e-02  -3.9956741e-02   1.0818298e-01   1.0512869e-01  -6.0501635e-02  -1.2699287e-01  -3.2170760e-02  -3.8709137e-02  -6.3068002e-02   9.1999896e-02  -1.1859478e-01   7.7503354e-02   3.6814306e-02   2.4541594e-03   9.4681602e-02  -2.8696203e-01  -4.2018717e-02
  -4.7501029e-03   1.0832658e-03   2.6716762e-03  -3.0161007e-02   1.1789531e-02  -2.9469945e-02   3.0891371e-03   3.3412875e-03  -1.5136469e-02   1.4202603e-02   1.1903819e-01   2.7972417e-02  -1.6454006e-01  -8.1743778e-02  -1.5419140e-01  -1.0395925e-02   2.0222940e-02  -4.4168168e-02   3.9244386e-02  -4.0634170e-03   2.4689129e-01  -1.2024766e-01   9.4649881e-02   2.0488758e-01  -1.5750647e-01  -2.3452772e-01  -2.1762916e-02
   5.0734336e-03   1.0020888e-02  -2.8000100e-02   1.3090678e-02   9.1631726e-03  -5.7111467e-02   7.6348839e-03   4.2392585e-03   4.4634922e-02  -8.0888444e-02   4.5132597e-02   5.3235507e-02   6.8486403e-02   3.6123436e-02  -9.9365239e-02   2.0410146e-02  -2.5150741e-01   1.0242368e-02   5.6107234e-02  -6.9953028e-03  -1.0256265e-01   2.0782799e-01   6.0096309e-02   1.2219572e-01  -1.1963235e-01   1.4432266e-01  -6.9616080e-02
   5.5431312e-03  -1.2131104e-03   2.1324314e-02  -1.0161767e-02  -1.7037693e-02   1.1831286e-01  -2.4515875e-02   6.1399404e-02   2.1138815e-02   9.6400835e-02  -6.9354998e-03   1.4916614e-01   1.1671490e-02   1.8235122e-01  -4.9055558e-02   4.3116860e-02   1.0241366e-01  -2.7264835e-02  -1.4572429e-01   2.9032340e-02  -1.6440421e-01  -9.5727267e-02   3.8440445e-02   2.0080486e-02   1.3136528e-01  -5.8367070e-02  -1.1284638e-01
   7.5433971e-03  -4.0214939e-03   2.0394532e-02   3.0184602e-02  -7.2443081e-02   1.7181976e-02  -8.2072891e-03  -2.2999970e-02  -6.7231233e-02  -2.6871194e-03   4.3523851e-03  -4.0422241e-02  -2.6463490e-02   1.3220253e-01   6.0326044e-02  -5.2895499e-02  -5.7423625e-02  -1.2051001e-02   4.5318526e-02   2.2192168e-01   1.2977321e-01  -1.7345450e-01  -1.3438461e-02   2.8135048e-02  -2.0098522e-01   3.1024477e-01  -4.7015173e-02
   1.5252254e-03  -1.5778217e-02   2.2749926e-02   1.0855909e-02   1.8843413e-02  -3.8939244e-03   1.9377614e-02  -1.6255817e-02   3.3889576e-02   1.3102171e-01   4.1323190e-02   8.2288875e-02  -6.4906241e-02  -4.0987250e-02  -3.5226206e-02  -7.4280260e-03   7.7703985e-02  -1.7252453e-02  -6.5177672e-02  -6.4739584e-02   1.6245774e-01   1.2313089e-01   1.5164465e-01   1.7474652e-01  -1.2823532e-01  -8.8898364e-02  -1.0283423e-01
   6.4121802e-03   8.7882687e-03  -1.3021434e-02   2.8187263e-03  -4.9340522e-03   1.2390901e-02  -8.0621496e-03   1.2252840e-02  -4.4228986e-02  -7.0824561e-03  -1.5316544e-02   4.0054709e-03   3.6839716e-03   7.0010403e-02   1.9357939e-02   3.1058641e-03   4.1812662e-02  -3.0357794e-02   4.0243491e-02  -6.3743278e-02   3.8462403e-02  -4.7157962e-02  -2.7298480e-02  -3.8190310e-02  -1.7076032e-02   9.7136187e-02   2.6992852e-02
  -1.0092345e-02   5.7368232e-03   7.2494068e-05  -5.4401377e-03  -6.8563462e-03  -1.3685879e-03   7.9978513e-03   5.3912109e-02   5.6253073e-02  -1.4944331e-02   1.6710627e-02  -1.0720631e-01   7.3349048e-02  -1.9447746e-02  -3.6236054e-02   2.6972428e-02  -3.5282307e-02  -3.4582189e-02   1.2080312e-01  -6.0667903e-02  -8.2465095e-02   6.5526329e-03  -3.1587354e-02   9.0024275e-02   3.3213652e-02  -5.9615153e-02   3.9554937e-02
  -3.3014565e-04   1.3407564e-03   3.0944824e-03   3.4018607e-03  -2.1252085e-02  -1.2043140e-02  -1.2229961e-02  -5.2993877e-02  -2.6885793e-02  -7.5295674e-03  -4.9830662e-02   2.8559068e-02  -9.1045106e-02  -1.1006831e-02  -9.1038405e-03  -1.8926890e-02  -1.3475565e-02   2.7093062e-02   1.2072251e-03   1.4535191e-02  -1.7596836e-02  -7.0975257e-02  -6.9293931e-03   6.9574644e-02   3.7447408e-03   7.7785627e-02   9.2566864e-02
  -1.4916963e-03  -2.4429455e-03  -3.1998089e-03   1.2057168e-03   9.0380582e-03  -1.9550494e-02  -4.6198694e-03   7.1925138e-03  -9.6901400e-03   8.1995997e-03  -3.5329270e-02   3.9335582e-02   4.6097018e-02  -3.1741605e-02  -3.3941207e-02   3.0038534e-03  -1.0752516e-02   3.6949210e-02  -5.3092640e-03   4.1364240e-02   3.8277129e-02  -2.8692449e-02   3.1866596e-02   6.5949149e-02   5.6055341e-02   4.9501370e-03  -7.2028524e-03
  -7.8263752e-04  -8.9243555e-03   3.7188795e-03  -2.0915807e-02  -2.5305325e-02  -1.8273328e-02  -5.4127321e-03  -2.2638245e-02  -1.9553484e-02   3.3001971e-02   3.5976561e-02  -6.2076719e-02   1.4920439e-01   1.2664761e-01  -6.7969131e-02  -1.2476244e-01  -4.7652594e-02  -5.0459640e-02  -1.1358385e-01   1.2501217e-01  -1.2431916e-01   5.1961383e-02   1.4320973e-02   6.3373247e-02   1.0399428e-01  -2.5951347e-01  -6.2376288e-02
  -5.3678555e-03   2.2481760e-03   4.4685826e-03  -2.8637030e-02   2.3391583e-03  -2.6135628e-02   9.5821560e-03  -1.7299786e-02  -2.8730099e-02   4.7412327e-03   8.9765730e-02   6.6580011e-03  -1.6897337e-01  -8.3789931e-02  -8.4646791e-02  -5.0500191e-02   9.3889552e-03  -4.4176954e-02   5.3887017e-02  -9.1291711e-03   2.1428003e-01  -1.0879712e-01   4.1696525e-02   1.8111662e-01  -5.6074735e-02  -1.7050465e-01   8.7955763e-03
   6.2710326e-03   9.3384043e-03  -2.3642454e-02   1.6814949e-02   1.0933405e-02  -3.5576643e-02   8.3463342e-03   4.2301170e-03   6.7300160e-02  -6.0074272e-02   3.2079159e-02   2.1715894e-02   4.6704933e-02   3.7647860e-02  -9.9225743e-02   3.3516629e-02  -2.3592218e-01   5.4710138e-03   3.2060251e-02  -6.0519397e-03  -1.1663067e-01   1.9943647e-01  -2.2446240e-02   1.1754738e-01  -1.7395616e-01   1.5292166e-01  -1.4385241e-01
   6.2470997e-03  -3.6236822e-03   2.0041857e-02  -5.2157395e-03  -1.9291593e-02   1.1171395e-01  -1.0461069e-02   5.6205560e-02   1.7801777e-02   7.5589511e-02  -4.4900065e-02   1.3055756e-01   2.8342685e-02   1.4209266e-01  -6.3321745e-03   2.2640539e-02   8.6946501e-02   7.6545218e-03  -7.9902341e-02   5.5735119e-02  -1.7000663e-01  -8.9203970e-02   3.7454471e-02   1.4419515e-02   1.1349794e-01  -4.1528228e-02  -8.9244570e-02
   7.3942690e-03  -1.9437483e-03   2.0755241e-02   2.6715542e-02  -7.1915052e-02   1.3922831e-02  -2.9060345e-04  -2.7926739e-02  -5.9110984e-02   6.1607439e-03   2.4592212e-02  -4.4547801e-02   5.4197684e-03   1.5401239e-01   5.8987842e-02  -3.8048497e-02  -2.5659583e-02  -5.5836789e-02  -2.4419337e-02   1.7034360e-01   1.1575882e-01  -1.8000596e-01  -8.3954344e-02   3.4385590e-02  -2.1364433e-01   3.0369590e-01  -6.1575731e-02
   7.2577264e-04  -8.1413242e-03   2.4828332e-02   7.3713181e-03   1.9259780e-02   2.5717086e-03   1.3463288e-02   3.2447131e-03   2.5587666e-02   1.1676239e-01   1.2931784e-02   6.9699476e-02  -8.2898434e-02  -2.4720453e-02  -5.7270467e-02  -7.8419200e-03   8.1430090e-02  -1.8501230e-02  -5.6440700e-02  -7.4109456e-02   1.3735021e-01   1.4120897e-01   1.0102491e-01   1.8407994e-01  -1.2119251e-01  -2.7136074e-02  -1.5483528e-01
   2.1996218e-03   5.0264148e-03  -9.7333819e-03   2.7488929e-03   7.9222797e-03   7.9325043e-03   4.3792205e-03   3.9508456e-03  -3.2312187e-02  -1.1274935e-02  -9.4263259e-03   7.3661600e-03   2.3965904e-03   9.2190403e-02  -7.8146041e-04  -3.2021150e-03   5.7806915e-02  -7.1993008e-02   2.0101079e-02  -1.0826091e-01   6.2205198e-02  -7.2649353e-02  -5.9857791e-02  -5.8692979e-02  -1.0146849e-02   1.2903289e-01   9.2019013e-02
  -1.2918624e-02   6.8600977e-03  -6.0668536e-04  -6.9660048e-03  -7.7812464e-03  -2.7043181e-03   1.3955797e-02   4.7791170e-02   5.8333761e-02  -1.7664061e-02  -2.2551344e-03  -1.0891201e-01   8.4034234e-02  -3.5468797e-02  -4.0933774e-02   6.3367232e-02  -3.4217842e-02  -2.5023099e-02   1.0214550e-01  -5.9158811e-02  -7.8714614e-02  -1.8336815e-02  -1.3170021e-02   5.8286566e-02   5.8171969e-02  -5.8510616e-02   6.2081273e-02
  -2.4666512e-03   1.4331973e-06   6.2540941e-03   6.2619307e-03  -2.4437754e-02  -2.1116405e-03  -6.1176744e-03  -5.6273989e-02  -3.3689367e-02  -1.3679814e-02  -6.6793302e-02   1.5652882e-02  -6.6491286e-02  -2.6418175e-02  -3.0463327e-03  -5.9772433e-03  -1.9861175e-02   2.2344634e-02  -1.6198988e-02   2.7520429e-02  -2.4428163e-03  -6.7020126e-02  -1.3561349e-02   1.1088321e-01  -1.5064773e-02   9.9690718e-02   1.2597466e-01
  -1.1372989e-03  -3.4252249e-03  -2.3387711e-03   3.0582764e-03   1.1972952e-02  -1.7436627e-02  -9.1754477e-03   1.8182872e-03  -1.7296975e-02   3.4590097e-03  -3.6197181e-02   2.4677695e-02   4.3593619e-02  -4.6643837e-02  -3.1097721e-03  -1.0795808e-02  -2.5893526e-02   2.9862066e-02  -7.2643013e-03   4.8258935e-02   1.6325646e-02  -1.6092039e-02   2.6287898e-02   4.7054897e-02   6.3091738e-02   8.5102470e-03   1.5234710e-02
  -4.7867182e-03  -5.1323209e-03   6.2836151e-03  -2.0888038e-02  -2.0825007e-02  -2.7872462e-02  -1.6440807e-02  -2.9706185e-02  -2.7596754e-02   4.0866640e-02   2.9032597e-02  -7.4820025e-02   1.7418323e-01   1.3895397e-01  -6.6065170e-02  -1.0590853e-01  -4.5952750e-02  -6.4973120e-02  -1.6236261e-01   1.4708393e-01  -1.2035700e-01   2.2639208e-02  -2.6949097e-02   1.0675048e-01   1.1064214e-01  -2.0361360e-01  -8.4674045e-02
  -5.8350486e-03   3.4956004e-03   5.2983985e-03  -2.4629325e-02  -7.6951599e-03  -2.0053473e-02   1.7463316e-02  -3.8343318e-02  -3.6836781e-02  -5.6663339e-03   5.7194996e-02  -1.1007111e-02  -1.6016191e-01  -8.2837862e-02  -1.8412456e-02  -8.0361335e-02   4.7311271e-03  -4.2986932e-02   6.6042574e-02  -1.7869581e-02   1.7025131e-01  -8.7433885e-02  -2.1522366e-02   1.3634024e-01   3.9823828e-02  -1.0391991e-01   3.9613668e-02
   6.6505950e-03   9.3158977e-03  -1.7812976e-02   1.9382021e-02   1.1457093e-02  -1.4845695e-02   1.0310299e-02   4.4629640e-03   8.0201404e-02  -4.1322912e-02   1.9002946e-02  -4.6095768e-03   3.2220287e-02   3.2014937e-02  -9.1128644e-02   4.0446014e-02  -2.0685216e-01  -1.7557518e-03   1.1349490e-02  -8.4429806e-03  -1.2134760e-01   1.7027862e-01  -8.5409986e-02   9.6600432e-02  -2.0809171e-01   1.6204957e-01  -2.1312063e-01
   6.6760709e-03  -6.5408976e-03   1.8188925e-02  -1.1396526e-03  -2.2134227e-02   9.5831913e-02   2.2649227e-03   4.8124092e-02   1.3365195e-02   4.6639581e-02  -7.6085081e-02   1.0380400e-01   4.2333695e-02   9.5399225e-02   3.2978363e-02  -6.2398323e-03   6.4167898e-02   3.5662343e-02  -2.1565726e-02   7.4487179e-02  -1.7042756e-01  -7.9063905e-02   3.2888471e-02   1.1812942e-02   8.2520788e-02  -2.1023733e-02  -6.3975916e-02
   7.1526422e-03   6.3825442e-04   1.8856233e-02   2.0453626e-02  -6.6844508e-02   9.6217220e-03   7.7155896e-03  -3.1038041e-02  -5.1921094e-02   1.6319598e-02   3.9605945e-02  -4.7384152e-02   3.2283297e-02   1.6247453e-01   5.9988420e-02  -1.8246280e-02   4.9605642e-03  -9.5120111e-02  -8.4367656e-02   1.1381146e-01   9.0439814e-02  -1.8539571e-01  -1.4130874e-01   4.5336523e-02  -2.1688194e-01   2.8192661e-01  -7.3770092e-02
  -4.9102996e-04   3.5616499e-05   2.5293166e-02   3.8012317e-03   1.8110928e-02   6.9862049e-03   6.3070118e-03   1.9909206e-02   1.7342675e-02   9.7158406e-02  -1.5579566e-02   4.9730395e-02  -9.7668969e-02  -1.7461816e-02  -7.4177752e-02  -2.4293452e-03   7.4427109e-02  -1.9729676e-02  -4.5772764e-02  -7.9792075e-02   9.9032724e-02   1.4570348e-01   4.9901946e-02   1.8532366e-01  -9.4798619e-02   3.9043616e-02  -1.9251148e-01
  -9.5205787e-04   1.8884029e-03  -5.8248412e-03   2.9386576e-03   1.6587847e-02   4.0570579e-03   1.3675630e-02  -6.8866612e-03  -2.1233512e-02  -1.6505438e-02  -2.6215563e-03   9.1980934e-03   1.2038837e-03   1.0723016e-01  -1.6636106e-02  -1.2657761e-02   6.3368769e-02  -1.0841481e-01   6.5858586e-03  -1.4157274e-01   7.3084469e-02  -8.1573718e-02  -9.2410715e-02  -6.6027469e-02  -3.0241126e-03   1.4921774e-01   1.3724257e-01
  -1.4283983e-02   9.1138159e-03  -1.2380676e-03  -7.5536937e-03  -7.1739865e-03  -3.5075392e-03   1.8095452e-02   4.1197681e-02   5.1955090e-02  -2.1341290e-02  -2.9158842e-02  -9.6714218e-02   7.8499421e-02  -3.9420750e-02  -4.6651469e-02   8.6163770e-02  -2.5795745e-02  -2.0197378e-02   6.5304532e-02  -4.3741197e-02  -6.6533664e-02  -2.8566372e-02   5.4884113e-03   2.0323085e-02   7.0647607e-02  -4.2795042e-02   5.9515199e-02
  -4.3777704e-03  -1.1126642e-03   9.7822571e-03   9.6327801e-03  -2.7090010e-02   6.0176899e-03   3.9361914e-04  -4.7353681e-02  -2.5848822e-02  -1.6058251e-02  -7.5854603e-02   4.8478472e-03  -4.3838090e-02  -3.6689344e-02  -4.1255364e-03   5.4343968e-03  -2.7174090e-02   9.8475411e-03  -2.4409339e-02   3.2072874e-02   1.8335545e-02  -5.6192762e-02  -5.7688824e-05   1.2138513e-01  -3.3075480e-02   1.0985380e-01   1.2778904e-01
  -5.9994747e-04  -3.1898014e-03  -1.4920028e-03   3.5780290e-03   1.2850054e-02  -1.5742833e-02  -1.3546099e-02  -3.3505398e-03  -1.7479802e-02   1.9054381e-03  -3.2430738e-02   1.1402997e-02   2.7541979e-02  -5.4254086e-02   2.2511510e-02  -2.6499890e-02  -4.4883682e-02   1.7017559e-02  -1.1188425e-02   4.4883278e-02  -6.9147536e-03   4.7191210e-04   2.7734016e-02   2.0100052e-02   5.4873968e-02   1.1212170e-02   3.1008912e-02
  -8.9639382e-03  -1.5819332e-03   9.6404982e-03  -2.1105758e-02  -1.5646775e-02  -2.8896725e-02  -2.6552552e-02  -3.8542289e-02  -3.3520027e-02   4.9242918e-02   1.1797005e-02  -7.5755502e-02   1.8101816e-01   1.3716984e-01  -5.3783410e-02  -7.2540320e-02  -2.4924638e-02  -8.1172496e-02  -2.0040251e-01   1.5420513e-01  -1.0569038e-01  -5.6443399e-03  -8.0056855e-02   1.2574661e-01   1.1581859e-01  -1.2605641e-01  -1.0160364e-01
  -6.1710494e-03   4.8850604e-03   5.3633500e-03  -1.9204958e-02  -1.7073025e-02  -1.2181158e-02   2.5529286e-02  -5.7021063e-02  -3.9237450e-02  -1.5602314e-02   2.5605070e-02  -2.2170465e-02  -1.3927113e-01  -7.7986370e-02   3.4920672e-02  -9.6110948e-02   6.6710898e-03  -4.1406754e-02   7.3584197e-02  -3.0291388e-02   1.2051123e-01  -5.8999181e-02  -8.5576932e-02   7.7183976e-02   1.2289058e-01  -4.1681565e-02   6.3941141e-02
   6.4027714e-03   9.6030819e-03  -1.1098422e-02   2.0160906e-02   1.0616387e-02   3.4249304e-03   1.3975035e-02   4.5350508e-03   8.4680325e-02  -2.5861851e-02   6.7850333e-03  -2.2177291e-02   2.4309302e-02   1.9250427e-02  -7.6457426e-02   4.2536920e-02  -1.6631886e-01  -1.1818350e-02  -2.2176322e-03  -1.7002098e-02  -1.1808336e-01   1.2321955e-01  -1.2384323e-01   5.6789064e-02  -2.1940056e-01   1.6587755e-01  -2.7044411e-01
   6.6894696e-03  -9.5727788e-03   1.5972097e-02   1.6883270e-03  -2.4549271e-02   7.2187142e-02   1.1832407e-02   3.8907734e-02   9.3068245e-03   1.4119332e-02  -9.6049596e-02   7.2294367e-02   5.2967654e-02   4.9579423e-02   6.3808675e-02  -3.8555215e-02   3.5914539e-02   5.5242634e-02   2.1126616e-02   8.6277625e-02  -1.6643278e-01  -6.6583183e-02   2.6031080e-02   1.4664997e-02   3.8991703e-02  -6.2290887e-04  -4.2670289e-02
   6.8049409e-03   3.4906199e-03   1.5346854e-02   1.2218052e-02  -5.7794399e-02   5.1568842e-03   1.5669419e-02  -3.1978143e-02  -4.4992710e-02   2.6225314e-02   4.8866689e-02  -4.8330384e-02   5.2368269e-02   1.5790257e-01   6.2966225e-02   3.0287132e-03   3.2174455e-02  -1.2698729e-01  -1.3086105e-01   5.7101981e-02   5.7170662e-02  -1.8746379e-01  -1.8091616e-01   6.0123045e-02  -2.0978334e-01   2.4632862e-01  -8.2685972e-02
  -2.1372382e-03   7.6909564e-03   2.4025040e-02   2.1479055e-04   1.5600620e-02   8.9731882e-03  -5.0451146e-04   3.2433438e-02   1.1275364e-02   7.4295675e-02  -4.0473431e-02   2.3836247e-02  -1.0517442e-01  -1.9588544e-02  -8.4685491e-02   6.9417493e-03   5.6732916e-02  -2.2619586e-02  -3.3408333e-02  -8.0629338e-02   5.1595873e-02   1.3920561e-01   1.8287760e-03   1.7723259e-01  -5.3397633e-02   1.0122562e-01  -2.1756349e-01
  -2.7496604e-03  -2.1556186e-04  -1.9407652e-03   3.3539370e-03   2.0255910e-02   1.2373934e-03   1.8969680e-02  -1.8694670e-02  -1.2606756e-02  -2.0929806e-02   4.4050627e-03   1.0101443e-02   2.6838526e-04   1.1359655e-01  -2.7106973e-02  -2.2090839e-02   6.0645461e-02  -1.3387994e-01   7.0196917e-04  -1.6025065e-01   7.3224084e-02  -7.5601201e-02  -1.1820816e-01  -6.1428968e-02   6.7703626e-03   1.5780043e-01   1.6093731e-01
  -1.4126564e-02   1.1801282e-02  -1.8535640e-03  -7.4096026e-03  -5.6387125e-03  -4.5077336e-03   1.9423944e-02   3.4362695e-02   3.9342165e-02  -2.6523115e-02  -5.8131410e-02  -7.6850717e-02   6.1406223e-02  -3.4341886e-02  -5.1943193e-02   9.3632793e-02  -1.4460095e-02  -1.9588238e-02   1.6122566e-02  -1.6128910e-02  -5.3011966e-02  -2.5702255e-02   1.8939687e-02  -1.4461022e-02   7.1657530e-02  -1.7368238e-02   4.0767379e-02
  -5.6838878e-03  -2.1400917e-03   1.2985669e-02   1.2888956e-02  -2.8596787e-02   1.2120055e-02   5.7280118e-03  -2.9112807e-02  -7.2186181e-03  -1.4862309e-02  -7.6236279e-02  -3.3622880e-03  -2.6278356e-02  -4.1311801e-02  -8.7068342e-03   1.3087658e-02  -3.5488072e-02  -6.6800562e-03  -2.2316885e-02   2.9935322e-02   4.2126141e-02  -4.2579527e-02   3.1487930e-02   1.0003515e-01  -4.9102927e-02   1.0965921e-01   1.0351384e-01
  -1.3097388e-04  -1.9854343e-03  -7.6658289e-04   3.0075057e-03   1.1821623e-02  -1.4426716e-02  -1.6503648e-02  -7.3821699e-03  -1.1190111e-02   3.1512737e-03  -2.7685647e-02   2.0103398e-03   3.9085588e-03  -5.5197007e-02   3.9391128e-02  -3.8872495e-02  -6.2720232e-02   7.8967468e-04  -1.6350083e-02   3.2921429e-02  -2.6505050e-02   1.8948986e-02   3.6344405e-02  -4.8890559e-03   3.2493934e-02   1.3256347e-02   3.8758547e-02
  -1.2673352e-02   7.7838519e-04   1.3242270e-02  -2.1881143e-02  -1.0730415e-02  -2.3019889e-02  -3.4566151e-02  -4.8632318e-02  -3.6045968e-02   5.6981765e-02  -1.2999439e-02  -6.5875917e-02   1.6945159e-01   1.1916870e-01  -3.2955103e-02  -2.9015257e-02   1.3200819e-02  -9.6579183e-02  -2.2004506e-01   1.4504017e-01  -8.1236875e-02  -2.7211204e-02  -1.3702406e-01   1.2006618e-01   1.1827578e-01  -3.7791348e-02  -1.0613505e-01
  -6.3960981e-03   6.4727593e-03   4.8005865e-03  -1.3245434e-02  -2.4343941e-02  -3.8625190e-03   3.2309027e-02  -7.0935403e-02  -3.6439526e-02  -2.3706259e-02  -1.9906400e-03  -2.5441802e-02  -1.0823089e-01  -6.8948987e-02   6.8772955e-02  -9.5574498e-02   1.4039189e-02  -3.9500018e-02   7.5895787e-02  -4.4749117e-02   7.0601368e-02  -2.6360279e-02  -1.4097990e-01   1.0951250e-02   1.8778305e-01   1.1055562e-02   7.6249137e-02
   5.9001861e-03   9.7135521e-03  -4.3910387e-03   1.8953121e-02   8.2668133e-03   1.7389197e-02   1.9353277e-02   4.1074388e-03   8.2511270e-02  -1.4442243e-02  -3.2445876e-03  -2.9781713e-02   2.1912577e-02   1.0394096e-03  -5.8111212e-02   4.0807428e-02  -1.1944787e-01  -2.3579035e-02  -6.0645207e-03  -3.2533697e-02  -1.0900816e-01   6.3176225e-02  -1.3587830e-01   3.5393206e-04  -2.0844979e-01   1.5812404e-01  -3.0941946e-01
   6.1871602e-03  -1.2346955e-02   1.3542909e-02   3.1737716e-03  -2.5432693e-02   4.2684768e-02   1.6489271e-02   3.0465475e-02   6.6750957e-03  -1.7428115e-02  -1.0273449e-01   3.8826740e-02   6.0140507e-02   1.0801387e-02   8.3434121e-02  -6.9187767e-02   4.0329762e-03   6.6139345e-02   4.3855021e-02   9.2881839e-02  -1.5857274e-01  -5.2678982e-02   1.8460789e-02   2.4037328e-02  -1.4924423e-02   1.7324848e-02  -2.9408577e-02
   6.3514414e-03   6.2734393e-03   1.0950848e-02   3.0631337e-03  -4.5653856e-02   1.5051148e-03   2.3309812e-02  -3.0540491e-02  -3.8024278e-02   3.4439650e-02   5.1996616e-02  -4.7369949e-02   6.4460715e-02   1.4129194e-01   6.7390958e-02   2.2388836e-02   5.4107356e-02  -1.4907984e-01  -1.6092948e-01   4.9688150e-03   1.9860897e-02  -1.8423328e-01  -1.9934200e-01   7.7341165e-02  -1.9156617e-01   1.9889520e-01  -8.7671355e-02
  -4.1732690e-03   1.3956419e-02   2.1047335e-02  -3.3975717e-03   1.1939371e-02   8.6683177e-03  -5.3729749e-03   4.0101784e-02   8.9387882e-03   5.0566758e-02  -5.8948726e-02  -5.4409859e-03  -1.0308432e-01  -2.9628163e-02  -8.9222646e-02   1.8814648e-02   2.9937336e-02  -2.8296283e-02  -1.9930116e-02  -7.6715353e-02   3.9992313e-04   1.2452182e-01  -3.9733053e-02   1.5843316e-01  -2.8484401e-03   1.5223759e-01  -2.3263403e-01
  -3.0822162e-03  -1.0554519e-03   1.2560891e-03   3.7250425e-03   1.8841103e-02  -2.9515155e-04   1.9834860e-02  -2.9595822e-02  -7.4345471e-03  -2.2306855e-02   1.0718894e-02   1.0436548e-02   2.8826972e-04   1.1002672e-01  -3.1887628e-02  -2.7860887e-02   5.3198932e-02  -1.4388357e-01   8.2821917e-04  -1.6292288e-01   6.6404097e-02  -5.8310269e-02  -1.3062891e-01  -4.8615999e-02   2.1109923e-02   1.5537629e-01   1.6448737e-01
  -1.2625723e-02   1.4256677e-02  -2.4392074e-03  -6.8552876e-03  -4.0011942e-03  -6.0873007e-03   1.7580742e-02   2.7123505e-02   2.3253482e-02  -3.3011520e-02  -8.2845461e-02  -5.5162118e-02   3.8467603e-02  -2.4345350e-02  -5.5228188e-02   8.6636888e-02  -4.1934337e-03  -2.1978192e-02  -3.7145858e-02   2.0153780e-02  -4.3623191e-02  -1.3689731e-02   2.2274579e-02  -3.8872873e-02   6.4902063e-02   1.2111131e-02   1.5910959e-02
  -6.1278179e-03  -3.2098420e-03   1.5150150e-02   1.5517990e-02  -2.8493602e-02   1.5729432e-02   8.6710503e-03  -5.6482912e-03   1.6952540e-02  -1.0810876e-02  -6.7928893e-02  -9.4579522e-03  -1.4516402e-02  -4.0512652e-02  -1.3689157e-02   1.5860404e-02  -4.4516611e-02  -2.2326300e-02  -1.0961716e-02   2.4303507e-02   6.6198501e-02  -3.0133414e-02   7.4785551e-02   5.3019077e-02  -6.2496055e-02   1.0151456e-01   6.3405360e-02
   1.0980053e-04  -1.2614742e-04  -2.3020881e-04   1.4609077e-03   8.9810497e-03  -1.3753207e-02  -1.7157866e-02  -1.0814152e-02   7.7764929e-05   6.4547583e-03  -2.4931960e-02  -1.9734162e-03  -2.1629513e-02  -5.0894625e-02   4.6463445e-02  -4.3601180e-02  -7.4299243e-02  -1.6413620e-02  -2.2119515e-02   1.4890705e-02  -4.0803114e-02   3.7192575e-02   4.9011897e-02  -2.0336601e-02  -4.2741708e-04   1.3863157e-02   3.9601104e-02
  -1.5243356e-02   1.2567758e-03   1.6287182e-02  -2.3158393e-02  -7.0887408e-03  -1.2783436e-02  -3.9899185e-02  -5.8984692e-02  -3.4478948e-02   6.3227710e-02  -4.0646101e-02  -4.9388673e-02   1.4095621e-01   8.6441544e-02  -7.7128863e-03   1.8557444e-02   6.2094761e-02  -1.0795224e-01  -2.1726573e-01   1.2126793e-01  -4.9877585e-02  -3.6923845e-02  -1.9023133e-01   9.6121490e-02   1.1448052e-01   4.8515214e-02  -9.3843875e-02
  -6.5270583e-03   8.3004705e-03   3.6950662e-03  -7.3972974e-03  -2.8097266e-02   3.3603827e-03   3.6268344e-02  -7.8350998e-02  -2.9455688e-02  -2.8741215e-02  -2.3911776e-02  -2.0857984e-02  -6.9802348e-02  -5.6096563e-02   8.0120980e-02  -7.8569994e-02   2.4381525e-02  -3.6605630e-02   7.3651088e-02  -5.8319044e-02   2.5398238e-02   7.9672727e-03  -1.7917252e-01  -5.5133330e-02   2.3114244e-01   5.1100987e-02   7.2924464e-02
   5.5569252e-03   9.2480830e-03   1.2732494e-03   1.6025108e-02   4.3035853e-03   2.5377157e-02   2.5960088e-02   2.8756537e-03   7.5385330e-02  -7.2788377e-03  -9.4728408e-03  -2.8392515e-02   2.3707573e-02  -1.9081392e-02  -4.0041973e-02   3.5897533e-02  -7.3803909e-02  -3.4664339e-02  -5.9758722e-05  -5.3613198e-02  -9.6669159e-02  -3.7689190e-03  -1.2313718e-01  -6.5813869e-02  -1.7875151e-01   1.3377586e-01  -3.2572537e-01
   5.1280417e-03  -1.4540772e-02   1.1011879e-02   3.4728891e-03  -2.3796525e-02   9.5442655e-03   1.4847984e-02   2.4552181e-02   5.9807737e-03  -4.4047814e-02  -9.6534924e-02   5.6160576e-03   6.4120826e-02  -1.6564872e-02   9.1605864e-02  -9.3483901e-02  -2.9599430e-02   6.8961009e-02   4.6240692e-02   9.6257165e-02  -1.4730841e-01  -3.7943482e-02   1.1802739e-02   3.9485096e-02  -7.5661898e-02   3.1808413e-02  -2.5877749e-02
   5.8092624e-03   8.5740222e-03   6.3658720e-03  -5.8136786e-03  -3.1563389e-02  -4.6520768e-04   3.0241521e-02  -2.6646908e-02  -3.1143993e-02   3.9802800e-02   4.8786374e-02  -4.5175681e-02   6.8159730e-02   1.1418473e-01   7.2543415e-02   3.6875555e-02   6.9303140e-02  -1.5967253e-01  -1.7259757e-01  -3.8069209e-02  -1.7393891e-02  -1.7401384e-01  -1.9450329e-01   9.5589103e-02  -1.6193092e-01   1.4196045e-01  -8.8355371e-02
  -6.4897433e-03   1.8218410e-02   1.6539979e-02  -7.0828085e-03   7.3409099e-03   6.6265758e-03  -7.0431627e-03   4.2833326e-02   1.1106669e-02   2.8391157e-02  -6.9411821e-02  -3.4948025e-02  -9.0993891e-02  -4.4685852e-02  -8.9572708e-02   3.2155292e-02  -3.2833999e-03  -3.7067870e-02  -6.1083297e-03  -6.9130853e-02  -4.8838163e-02   1.0460819e-01  -7.1638884e-02   1.2801180e-01   5.0180268e-02   1.8662117e-01  -2.4058553e-01
  -1.9970403e-03  -5.8036245e-04   3.1775227e-03   3.6175864e-03   1.2824152e-02  -5.4580614e-04   1.6189613e-02  -3.7728793e-02  -6.0313988e-03  -1.8499931e-02   1.5283264e-02   9.9847789e-03   2.3112439e-03   9.5671669e-02  -3.1176021e-02  -2.6422512e-02   4.4905991e-02  -1.3577780e-01   3.1065459e-03  -1.4993885e-01   5.6650896e-02  -3.4248693e-02  -1.2438214e-01  -3.2519678e-02   4.0481462e-02   1.4271816e-01   1.5135078e-01
  -1.0128016e-02   1.5920329e-02  -2.9755769e-03  -6.2704169e-03  -3.1167039e-03  -8.0909092e-03   1.2931437e-02   1.9238611e-02   6.6244005e-03  -3.9761612e-02  -9.7813860e-02  -3.5706861e-02   1.5308244e-02  -1.3562962e-02  -5.5122683e-02   6.8079723e-02   2.4051894e-03  -2.5730094e-02  -8.4301849e-02   6.0019402e-02  -4.0872611e-02   2.3349267e-03   1.2511756e-02  -4.9554082e-02   5.5454496e-02   3.9609701e-02  -6.1705735e-03
  -5.6017730e-03  -4.3242963e-03   1.5685940e-02   1.7110729e-02  -2.6641523e-02   1.6123170e-02   8.5476455e-03   1.8309194e-02   4.1032571e-02  -4.8265437e-03  -5.1734553e-02  -1.4266515e-02  -7.4448788e-03  -3.4979269e-02  -1.7106252e-02   1.3721776e-02  -5.3344542e-02  -3.2144901e-02   6.4569918e-03   1.9041327e-02   8.7469790e-02  -2.1999054e-02   1.1992161e-01  -7.8292292e-03  -7.2691913e-02   8.8264923e-02   1.9838243e-02
   8.0244657e-05   2.0549822e-03   8.5297939e-05  -1.0091738e-03   4.4679009e-03  -1.4208821e-02  -1.5154694e-02  -1.5089638e-02   1.4460491e-02   1.1003485e-02  -2.5462628e-02  -3.8341946e-04  -4.4461331e-02  -4.3164146e-02   4.4735012e-02  -3.8417352e-02  -7.5619357e-02  -3.2204777e-02  -2.7941187e-02  -5.9437882e-03  -5.0835436e-02   5.2795031e-02   6.0312912e-02  -2.2437000e-02  -3.7892581e-02   1.1746550e-02   3.6397499e-02
  -1.6182421e-02  -3.2680107e-04   1.7995113e-02  -2.4568337e-02  -5.5172011e-03  -8.5827778e-04  -4.2600836e-02  -6.8313829e-02  -2.8906624e-02   6.7553595e-02  -6.5595015e-02  -3.2398202e-02   9.8425840e-02   4.3743697e-02   1.6837413e-02   6.3311445e-02   1.1306407e-01  -1.1228843e-01  -1.9277623e-01   8.7046932e-02  -1.5841018e-02  -3.1606467e-02  -2.3326828e-01   6.4709887e-02   9.9909432e-02   1.2134034e-01  -6.4405627e-02
  -6.5733562e-03   1.0370142e-02   2.1098826e-03  -2.0816617e-03  -2.7257914e-02   7.9777440e-03   3.6077960e-02  -7.8404207e-02  -1.9537102e-02  -2.9656602e-02  -3.9655272e-02  -9.6582926e-03  -2.7574632e-02  -4.0476421e-02   6.9549368e-02  -4.6964479e-02   3.4520126e-02  -3.1545764e-02   6.8422465e-02  -6.7439635e-02  -1.1202348e-02   4.2056265e-02  -1.9344349e-01  -1.1455119e-01   2.5150364e-01   7.7188831e-02   5.2666499e-02
   5.6833268e-03   8.0516377e-03   4.9412433e-03   1.2014744e-02  -1.2342521e-03   2.6348373e-02   3.2923987e-02   5.3298866e-04   6.4569112e-02  -4.1152304e-03  -1.0493874e-02  -2.0283536e-02   2.8125017e-02  -3.6289041e-02  -2.6367793e-02   2.8315467e-02  -3.7762829e-02  -4.2109831e-02   1.3095124e-02  -7.7049352e-02  -8.3329922e-02  -7.1379976e-02  -9.0541973e-02  -1.3197082e-01  -1.3568263e-01   9.0750930e-02  -3.1807387e-01
   3.5460618e-03  -1.5908751e-02   8.4719412e-03   2.9206605e-03  -1.8970806e-02  -2.4733793e-02   6.1855848e-03   2.2479458e-02   7.1709539e-03  -6.2831045e-02  -8.0020917e-02  -2.5558230e-02   6.5321742e-02  -3.0350984e-02   9.0271584e-02  -1.0779769e-01  -6.2991882e-02   6.4746850e-02   3.1446082e-02   9.7928465e-02  -1.3318476e-01  -2.2801932e-02   7.4310738e-03   5.9148993e-02  -1.3857126e-01   4.2762517e-02  -3.0894334e-02
   5.2128541e-03   9.9621652e-03   2.1871408e-03  -1.3197088e-02  -1.6820351e-02  -1.8157602e-04   3.5946985e-02  -2.0347609e-02  -2.4890111e-02   4.1547605e-02   3.9250980e-02  -4.3052925e-02   6.4000394e-02   7.8560951e-02   7.7518725e-02   4.4200778e-02   7.6768549e-02  -1.5775115e-01  -1.6520237e-01  -6.7965067e-02  -5.0708720e-02  -1.5551570e-01  -1.6589200e-01   1.1392076e-01  -1.2136339e-01   7.7998545e-02  -8.4633025e-02
  -8.8991460e-03   2.0154073e-02   1.0847928e-02  -1.0884825e-02   2.0462050e-03   3.6648184e-03  -4.9216327e-03   4.1136878e-02   1.7630814e-02   9.9094929e-03  -7.1535132e-02  -6.1444848e-02  -7.0374449e-02  -6.1059914e-02  -8.8321743e-02   4.6256717e-02  -3.9706026e-02  -4.8297572e-02   7.2348465e-03  -5.9490049e-02  -9.0991497e-02   8.2501425e-02  -9.1394641e-02   8.6147208e-02   9.9040619e-02   2.0100322e-01  -2.4368030e-01
   3.1761152e-04   1.0930855e-03   3.4091491e-03   2.5717561e-03   3.1037695e-03   2.6984104e-04   8.2641809e-03  -4.1598898e-02  -8.0366544e-03  -8.0267122e-03   1.7162793e-02   7.8455790e-03   7.3665522e-03   7.0418147e-02  -2.5458138e-02  -1.4983244e-02   3.8922431e-02  -1.0923718e-01   2.3530666e-03  -1.2297472e-01   4.7090118e-02  -8.0456027e-03  -9.6629348e-02  -1.7890125e-02   6.3449705e-02   1.2067679e-01   1.2608210e-01
  -7.0568695e-03   1.6360941e-02  -3.5054186e-03  -6.0026334e-03  -3.6899531e-03  -9.8712342e-03   6.4953885e-03   1.0726754e-02  -7.7416763e-03  -4.5018149e-02  -9.9435395e-02  -2.0309976e-02  -3.3300528e-03  -5.2522229e-03  -5.0760752e-02   4.2157498e-02   4.3691992e-03  -2.8982614e-02  -1.1433276e-01   9.7373190e-02  -4.3848144e-02   1.7435573e-02  -1.0138781e-02  -4.7394633e-02   4.8076861e-02   5.8817394e-02  -1.9358288e-02
  -4.1549120e-03  -5.2907854e-03   1.4279189e-02   1.7321339e-02  -2.3366536e-02   1.2523112e-02   5.3182194e-03   3.7940221e-02   5.9977680e-02   2.2164197e-03  -2.9327484e-02  -1.8303904e-02  -3.2135136e-03  -2.5708974e-02  -1.8182408e-02   7.5737855e-03  -6.0267055e-02  -3.2429288e-02   2.5080977e-02   1.7755129e-02   1.0219030e-01  -2.0072911e-02   1.5455181e-01  -6.7718756e-02  -7.8739684e-02   7.2787401e-02  -1.5396931e-02
  -1.4783345e-04   4.2184945e-03   1.6345253e-04  -4.2628478e-03  -1.3317792e-03  -1.6234496e-02  -1.0783638e-02  -2.1580041e-02   2.9681379e-02   1.6103369e-02  -2.8414370e-02   5.4912834e-03  -6.1215572e-02  -3.3919719e-02   3.6614899e-02  -2.3862619e-02  -6.4772130e-02  -4.4179362e-02  -3.3241983e-02  -2.5548125e-02  -5.8541539e-02   6.2984497e-02   6.4245632e-02  -1.1582390e-02  -7.1935671e-02   6.0224980e-03   3.2549651e-02
  -1.5336226e-02  -3.5649234e-03   1.7893708e-02  -2.5594223e-02  -6.3511201e-03   1.0653136e-02  -4.3192871e-02  -7.5272130e-02  -2.0148770e-02   6.9927721e-02  -8.2889382e-02  -2.1011299e-02   4.5799000e-02  -2.3119692e-03   3.6304073e-02   9.8877812e-02   1.5759372e-01  -1.0787040e-01  -1.5164060e-01   4.7863294e-02   1.6247228e-02  -1.1090645e-02  -2.6127075e-01   3.7155620e-02   7.0969519e-02   1.7277801e-01  -2.1889633e-02
  -6.5325369e-03   1.2613507e-02   1.2285725e-04   2.4537136e-03  -2.1371440e-02   8.7566879e-03   3.0902142e-02  -7.1205170e-02  -7.9171562e-03  -2.5660500e-02  -4.9575706e-02   6.0457646e-03   1.4160694e-02  -2.3784536e-02   4.0831792e-02  -4.4960077e-03   4.1236738e-02  -2.2957631e-02   6.2178307e-02  -6.8684072e-02  -3.6444777e-02   7.4630378e-02  -1.7973162e-01  -1.6190237e-01   2.4910776e-01   8.9759915e-02   1.6568019e-02
   6.3812673e-03   6.2559247e-03   5.9691634e-03   7.7521131e-03  -8.0692661e-03   2.0274650e-02   3.9224888e-02  -3.2598297e-03   5.0802821e-02  -4.3989373e-03  -5.7015628e-03  -7.8745303e-03   3.3396907e-02  -4.5626040e-02  -2.0334578e-02   1.8843416e-02  -1.8433317e-02  -4.3165199e-02   2.8436638e-02  -9.8795464e-02  -7.0334768e-02  -1.3415418e-01  -4.5614475e-02  -1.8825970e-01  -8.4973412e-02   3.1005574e-02  -2.8840375e-01
   1.5600520e-03  -1.6307545e-02   6.0220205e-03   1.9432013e-03  -1.0777183e-02  -5.7389588e-02  -9.2941701e-03   2.4887753e-02   9.6663176e-03  -7.2229504e-02  -5.7355664e-02  -5.3162618e-02   6.4102575e-02  -3.0706148e-02   8.2956629e-02  -1.0992532e-01  -9.3948186e-02   5.4580641e-02   5.3584039e-03   9.8483432e-02  -1.1698311e-01  -7.7393836e-03   6.1538828e-03   8.0101094e-02  -1.9828787e-01   5.0492543e-02  -4.0426482e-02
   4.6114252e-03   1.0055131e-02  -1.1388032e-03  -1.8001055e-02  -2.7743951e-03   2.5023691e-03   3.9826691e-02  -1.1856956e-02  -2.0113773e-02   3.9369138e-02   2.3706418e-02  -4.2718453e-02   5.3411680e-02   3.6745482e-02   8.1289350e-02   4.2902368e-02   7.6052336e-02  -1.4310017e-01  -1.3964440e-01  -8.1413246e-02  -7.6805384e-02  -1.2798460e-01  -1.1480512e-01   1.3208478e-01  -7.1295738e-02   9.5121149e-03  -7.6625465e-02
  -1.1141251e-02   1.9746660e-02   4.4828865e-03  -1.4816440e-02  -3.6354180e-03   6.7818096e-04   7.0402545e-04   3.5980621e-02   2.7396986e-02  -3.3066571e-03  -6.6129845e-02  -8.2063999e-02  -4.4303929e-02  -7.4951598e-02  -8.8203200e-02   6.0585849e-02  -7.6061134e-02  -6.0444444e-02   1.9356628e-02  -4.9418964e-02  -1.2236348e-01   6.1184962e-02  -9.7600105e-02   3.4642193e-02   1.3796781e-01   1.9438783e-01  -2.4282637e-01
   3.5429315e-03   3.6974657e-03   1.8010670e-03   2.7315187e-04  -9.1082409e-03   1.7722123e-03  -3.3630478e-03  -4.0384416e-02  -1.2517471e-02   9.4420092e-03   1.5748760e-02   2.6621266e-03   1.5985900e-02   3.5305148e-02  -1.5415182e-02   7.7948976e-03   3.6945197e-02  -6.6515992e-02  -6.6118870e-03  -8.4712504e-02   3.9336748e-02   1.6292857e-02  -4.7831113e-02  -8.1422742e-03   8.6548067e-02   9.0303590e-02   9.3567572e-02
  -3.8307304e-03   1.5281761e-02  -4.1889184e-03  -6.2630285e-03  -6.1081602e-03  -1.0547251e-02  -2.7887691e-04   2.1254926e-03  -1.7472575e-02  -4.6697467e-02  -8.6632069e-02  -8.9869247e-03  -1.4038191e-02  -1.1468433e-03  -4.2040082e-02   1.3514682e-02   2.0320899e-03  -2.9811316e-02  -1.1731806e-01   1.2597119e-01  -4.8697865e-02   2.8105241e-02  -4.1575698e-02  -3.6725562e-02   4.5563841e-02   6.3345970e-02  -2.0964025e-02
  -1.9859877e-03  -5.7370399e-03   1.1011564e-02   1.5857448e-02  -1.9508435e-02   4.4381796e-03  -4.0484387e-04   4.8893179e-02   7.0161004e-02   9.6269784e-03  -3.2730567e-03  -2.1346502e-02  -2.4991765e-04  -1.3999947e-02  -1.6983609e-02  -9.7122529e-04  -6.2887515e-02  -2.1830862e-02   3.9374415e-02   2.2936125e-02   1.0586992e-01  -2.4782765e-02   1.6582877e-01  -1.1209453e-01  -7.9018597e-02   5.7718992e-02  -3.3445562e-02
  -4.1650875e-04   6.0162173e-03  -1.8474427e-05  -7.9271054e-03  -7.6073525e-03  -1.9884272e-02  -4.9707664e-03  -3.0577936e-02   4.2969989e-02   2.1248926e-02  -3.0928947e-02   1.3166720e-02  -6.9587055e-02  -2.4976242e-02   2.5215133e-02  -3.4922577e-03  -4.2517804e-02  -4.9961574e-02  -3.7331054e-02  -3.9256608e-02  -6.4748941e-02   6.4763741e-02   5.6280103e-02   7.9996589e-03  -9.3462611e-02  -2.8675789e-03   3.0726412e-02
  -1.2939713e-02  -7.5794467e-03   1.6012246e-02  -2.5777833e-02  -9.3281024e-03   2.0644749e-02  -4.2412280e-02  -7.8681872e-02  -9.4819529e-03   7.0555628e-02  -8.9420937e-02  -1.9553111e-02  -1.2301266e-02  -4.5173121e-02   4.8458393e-02   1.2054490e-01   1.8976132e-01  -9.5000107e-02  -1.0163172e-01   9.1916367e-03   4.2277938e-02   2.1444547e-02  -2.7090514e-01   2.1432330e-02   2.6760149e-02   1.9991470e-01   2.6194330e-02
  -6.3859100e-03   1.4865879e-02  -2.1418291e-03   6.0642842e-03  -1.0823375e-02   4.9737131e-03   2.0655451e-02  -5.7824328e-02   4.3752735e-03  -1.6304951e-02  -5.4476981e-02   2.3637713e-02   5.0681177e-02  -8.2535638e-03   1.2929983e-04   4.3608235e-02   4.1955645e-02  -9.6753183e-03   5.6731642e-02  -5.9507831e-02  -4.8738878e-02   1.0496034e-01  -1.3724960e-01  -1.9310198e-01   2.2566962e-01   9.0647439e-02  -3.2126843e-02
   7.5120978e-03   4.2075677e-03   4.1804688e-03   4.0536073e-03  -1.5642858e-02   8.2975863e-03   4.3971193e-02  -8.8754391e-03   3.4423107e-02  -7.5098293e-03   4.2843997e-03   7.2466843e-03   3.7679104e-02  -4.3336125e-02  -2.3490776e-02   8.8824519e-03  -1.9803370e-02  -3.6012218e-02   4.0055197e-02  -1.1498568e-01  -5.7756390e-02  -1.8787149e-01   2.5686063e-03  -2.2735608e-01  -3.1323250e-02  -3.9303018e-02  -2.4131519e-01
  -6.2681010e-04  -1.5710405e-02   3.7852296e-03   9.7028974e-04   3.5935926e-04  -8.5450352e-02  -3.0289165e-02   3.1618544e-02   1.2449772e-02  -7.2203931e-02  -3.3500110e-02  -7.5768848e-02   6.0638721e-02  -1.9925408e-02   7.3906964e-02  -9.9400546e-02  -1.2003407e-01   3.9317490e-02  -2.4540416e-02   9.7263503e-02  -9.9820247e-02   6.4539238e-03   7.9328888e-03   9.8920941e-02  -2.4914627e-01   5.5084739e-02  -4.8148033e-02
   4.0630178e-03   8.5790719e-03  -3.3305545e-03  -1.9418694e-02   9.2785911e-03   7.2571983e-03   4.1267069e-02  -1.6192863e-03  -1.7812518e-02   3.3446882e-02   2.8488213e-03  -4.5950664e-02   3.8531931e-02  -8.6821318e-03   8.2835051e-02   3.2432357e-02   6.7351997e-02  -1.1639641e-01  -9.8489627e-02  -7.6148739e-02  -9.3368671e-02  -9.1343132e-02  -4.4528023e-02   1.5049340e-01  -1.4088572e-02  -6.0991355e-02  -6.4637770e-02
  -1.2903758e-02   1.7275227e-02  -1.8893406e-03  -1.8843623e-02  -9.2936068e-03  -1.5289468e-03   8.5975136e-03   2.8590684e-02   3.8400186e-02  -1.0480350e-02  -5.4881125e-02  -9.4624760e-02  -1.7022163e-02  -8.3162329e-02  -9.1439613e-02   7.4627863e-02  -1.0940248e-01  -7.1281961e-02   2.9757040e-02  -4.0082314e-02  -1.4126972e-01   4.3388989e-02  -9.0432686e-02  -2.2807810e-02   1.6289113e-01   1.6831771e-01  -2.3709102e-01
   7.2401535e-03   6.8318829e-03  -1.4699943e-03  -3.2892639e-03  -2.2347190e-02   3.4843764e-03  -1.7676733e-02  -3.4141662e-02  -1.8153171e-02   3.2736283e-02   1.0961309e-02  -6.8360125e-03   2.7730971e-02  -7.0962586e-03  -1.9462748e-03   4.1144639e-02   3.8925618e-02  -1.2445018e-02  -2.7406250e-02  -3.8656762e-02   3.3521272e-02   3.5839368e-02   1.7837461e-02  -4.7148622e-03   1.0470804e-01   5.3128494e-02   5.8517564e-02
  -8.0996429e-04   1.2554859e-02  -5.3005932e-03  -7.0499998e-03  -1.0282463e-02  -9.3931286e-03  -5.8427587e-03  -5.4188374e-03  -2.0915540e-02  -4.2971625e-02  -6.1020523e-02  -9.3520855e-04  -1.4928423e-02  -1.1427326e-03  -2.9752110e-02  -1.3578279e-02  -3.6400003e-03  -2.6446961e-02  -8.6925168e-02   1.4046365e-01  -4.9950232e-02   3.2951175e-02  -7.4082660e-02  -2.3556503e-02   4.7515067e-02   4.7438278e-02  -1.1491687e-02
   5.7776282e-04  -5.2220383e-03   6.4069392e-03   1.2548299e-02  -1.6334496e-02  -7.9608153e-03  -7.4240772e-03   4.7908639e-02   6.9940623e-02   1.6900017e-02   2.3067006e-02  -2.2410954e-02   2.1093019e-03  -1.5083539e-03  -1.3882646e-02  -9.8508503e-03  -5.8566827e-02  -2.0483016e-03   4.4407480e-02   3.5370084e-02   9.3776403e-02  -3.5025001e-02   1.4305564e-01  -1.2971091e-01  -7.1336047e-02   4.5237948e-02  -3.0088146e-02
  -5.2697108e-04   7.1090479e-03  -4.9311989e-04  -1.1347081e-02  -1.3080512e-02  -2.4570976e-02   8.5957397e-04  -4.0661246e-02   5.1195669e-02   2.6089913e-02  -2.8954835e-02   1.9532703e-02  -6.8136278e-02  -1.7910949e-02   1.3732799e-02   1.6648674e-02  -1.2347457e-02  -4.7474197e-02  -3.9370563e-02  -4.2326360e-02  -6.7880816e-02   5.5374410e-02   3.5084458e-02   2.9350598e-02  -9.3752096e-02  -1.2659285e-02   3.1966924e-02
  -9.5460062e-03  -1.1280716e-02   1.2904116e-02  -2.4886207e-02  -1.3604877e-02   2.9019499e-02  -4.0970857e-02  -7.7711869e-02   1.7311914e-03   6.9680603e-02  -8.4623729e-02  -2.9481590e-02  -7.0899588e-02  -8.0063108e-02   5.3901057e-02   1.2597479e-01   2.0765581e-01  -7.6118451e-02  -5.0970126e-02  -2.4581236e-02   5.9290563e-02   6.0017653e-02  -2.6018591e-01   1.9748040e-02  -3.0046115e-02   2.0471369e-01   7.0812579e-02
  -6.0958709e-03   1.6854593e-02  -4.4950287e-03   8.6440635e-03   3.0572503e-03  -3.3917645e-03   6.1748415e-03  -4.0166732e-02   1.6592247e-02  -1.5809900e-03  -5.5198284e-02   4.0356215e-02   7.7244765e-02   3.5720357e-03  -4.5064152e-02   9.1170086e-02   3.5315171e-02   8.9080371e-03   5.3212178e-02  -3.8830991e-02  -4.7586414e-02   1.3262676e-01  -6.8857968e-02  -2.0541834e-01   1.8415130e-01   8.2741273e-02  -8.8556619e-02
   8.7469052e-03   2.3211397e-03  -9.7648048e-05   1.5507072e-03  -2.3149376e-02  -7.4290444e-03   4.6619119e-02  -1.6667120e-02   1.5618719e-02  -1.2961853e-02   1.7568970e-02   2.4760648e-02   3.9232898e-02  -2.7903173e-02  -3.5386730e-02   5.2709133e-04  -4.1695860e-02  -2.0175679e-02   4.2693068e-02  -1.2276715e-01  -4.4448113e-02  -2.2967910e-01   4.4586360e-02  -2.4606722e-01   2.2364618e-02  -1.1075029e-01  -1.8294647e-01
  -2.7414860e-03  -1.4205002e-02   1.9186110e-03   3.6073825e-04   1.3387753e-02  -1.0583381e-01  -5.4364262e-02   4.1709275e-02   1.4195752e-02  -6.4197295e-02  -1.3324348e-02  -9.2018549e-02   5.4876888e-02  -2.0232007e-03   6.7137226e-02  -7.7617927e-02  -1.3864676e-01   1.9461840e-02  -5.0484738e-02   9.2305494e-02  -8.3159862e-02   1.8480321e-02   1.1707473e-02   1.1240563e-01  -2.8562853e-01   5.5972077e-02  -4.6483442e-02
   3.6257632e-03   5.4192508e-03  -4.2644684e-03  -1.7055887e-02   1.8202587e-02   1.3311556e-02   3.9730193e-02   9.6235097e-03  -1.8906195e-02   2.4417536e-02  -2.2182130e-02  -5.4179272e-02   2.1931862e-02  -5.4984085e-02   8.1303460e-02   1.3193953e-02   5.1600738e-02  -7.9287866e-02  -4.5871213e-02  -5.1269313e-02  -9.9330643e-02  -4.6316541e-02   3.9609768e-02   1.6995577e-01   4.7117390e-02  -1.3095863e-01  -4.9125251e-02
  -1.3857030e-02   1.3273267e-02  -7.4863189e-03  -2.2877359e-02  -1.4417286e-02  -2.3686115e-03   1.6689173e-02   2.0212209e-02   4.7954475e-02  -1.1748014e-02  -4.0003539e-02  -9.7778573e-02   6.6460695e-03  -8.3669436e-02  -9.9183816e-02   8.7768183e-02  -1.3730805e-01  -7.8271362e-02   3.8389433e-02  -3.1863990e-02  -1.4825067e-01   3.1358572e-02  -7.2044609e-02  -8.0716194e-02   1.7207548e-01   1.2680411e-01  -2.2364826e-01
   1.0872064e-02   9.9888763e-03  -5.8844526e-03  -7.7310056e-03  -3.4929107e-02   4.9061748e-03  -3.3131135e-02  -2.3859938e-02  -2.3460318e-02   5.9078156e-02   3.3880361e-03  -2.1115298e-02   4.0871842e-02  -5.2494257e-02   1.3706320e-02   8.1728005e-02   4.3230434e-02   4.5879001e-02  -6.0588868e-02   1.0908172e-02   2.8799301e-02   4.8911709e-02   9.2587318e-02  -6.9932489e-03   1.1214637e-01   1.1471733e-02   2.5218389e-02
   1.7185555e-03   8.2884957e-03  -7.1421577e-03  -8.1257637e-03  -1.5533049e-02  -6.2196856e-03  -8.9070839e-03  -1.0305848e-02  -1.7406721e-02  -3.2940180e-02  -2.6650200e-02   4.3746265e-03  -5.6725847e-03  -3.3907765e-03  -1.5500221e-02  -3.5880734e-02  -1.1659868e-02  -1.7632191e-02  -2.2975791e-02   1.3747180e-01  -4.2348781e-02   3.2657044e-02  -9.7782192e-02  -1.3470104e-02   5.0023957e-02   7.3814950e-03   6.2520242e-03
   3.1176272e-03  -3.4140735e-03   1.3764921e-03   7.4923558e-03  -1.5286154e-02  -2.3556325e-02  -1.4116799e-02   3.3530241e-02   5.9870677e-02   2.3600765e-02   4.5806812e-02  -2.0188755e-02   3.5283434e-03   9.7515253e-03  -9.0964441e-03  -1.6891004e-02  -4.5243782e-02   2.2133328e-02   3.7144954e-02   5.3931353e-02   6.2146327e-02  -4.8237329e-02   8.0810329e-02  -1.1500684e-01  -5.3550202e-02   3.6846725e-02  -6.5523732e-03
  -2.9523197e-04   7.2242451e-03  -1.2797016e-03  -1.3686368e-02  -1.6179706e-02  -2.9042742e-02   5.0555852e-03  -4.8738039e-02   5.1384513e-02   3.0347226e-02  -1.8553338e-02   2.1623057e-02  -5.6311436e-02  -1.3919199e-02   4.9467787e-03   2.9340610e-02   2.0017595e-02  -3.5476140e-02  -3.8481736e-02  -3.1001740e-02  -6.4085930e-02   3.3084424e-02   3.3617019e-03   4.4510988e-02  -6.6614455e-02  -1.9513620e-02   3.5444304e-02
  -5.8531834e-03  -1.3677926e-02   9.4720791e-03  -2.2980434e-02  -1.7932435e-02   3.6284618e-02  -3.9424045e-02  -7.1953958e-02   1.2332752e-02   6.7431396e-02  -7.0407689e-02  -4.9292541e-02  -1.2501785e-01  -1.0487331e-01   5.5652223e-02   1.1525399e-01   2.1330400e-01  -5.5186209e-02  -6.2615873e-03  -5.0662943e-02   6.5771202e-02   9.7222085e-02  -2.2827437e-01   2.8495909e-02  -9.3592168e-02   1.9246664e-01   1.0376573e-01
  -5.6071806e-03   1.8214272e-02  -6.6801810e-03   1.0080849e-02   1.8050832e-02  -1.5533223e-02  -1.0737419e-02  -2.0744756e-02   2.8228754e-02   1.7985159e-02  -5.2275144e-02   5.3624794e-02   8.9609639e-02   9.1748895e-03  -8.7088366e-02   1.3170064e-01   2.1530108e-02   3.2554454e-02   5.1644979e-02  -7.3634372e-03  -3.3476314e-02   1.5718955e-01   1.8879679e-02  -1.9743120e-01   1.2855448e-01   6.9683414e-02  -1.4697798e-01
   9.6835926e-03   9.1826689e-04  -6.1357370e-03   5.9723003e-04  -2.9646356e-02  -2.4199939e-02   4.7060976e-02  -2.6849015e-02  -5.3131995e-03  -2.0504390e-02   3.1381872e-02   4.5376407e-02   3.6605904e-02  -4.1358268e-04  -5.3933046e-02  -3.7509434e-03  -7.9830997e-02   3.4908703e-03   3.3085988e-02  -1.2070433e-01  -2.8452290e-02  -2.5771682e-01   7.1902747e-02  -2.4535570e-01   7.4887356e-02  -1.7252286e-01  -1.1962756e-01
  -4.4710743e-03  -1.1976807e-02   6.1239162e-04   3.5281791e-04   2.6708125e-02  -1.1552936e-01  -7.8086653e-02   5.3509566e-02   1.3425990e-02  -5.0932589e-02  -7.6209568e-04  -1.0070342e-01   4.6573711e-02   1.7888086e-02   6.5565489e-02  -4.7749173e-02  -1.4718127e-01  -4.7943669e-03  -6.5752130e-02   8.0562276e-02  -6.8685160e-02   2.6455925e-02   1.5399367e-02   1.1823915e-01  -3.0279623e-01   5.1786461e-02  -2.8046262e-02
   3.3479770e-03   6.5284329e-04  -3.9548403e-03  -1.1028455e-02   2.3126280e-02   1.9559073e-02   3.4854366e-02   2.0799035e-02  -2.3984109e-02   1.3301840e-02  -4.9773417e-02  -6.8091592e-02   6.3055413e-03  -9.9366228e-02   7.6155068e-02  -1.3460407e-02   3.0483649e-02  -3.4421561e-02   1.2818848e-02  -7.5605450e-03  -9.5027625e-02   5.4963265e-03   1.3040276e-01   1.9124242e-01   1.0860929e-01  -1.9772659e-01  -3.0689298e-02
  -1.3699720e-02   8.4565617e-03  -1.1480370e-02  -2.6769109e-02  -1.8439042e-02  -1.5411434e-03   2.2378042e-02   1.1884652e-02   5.3042994e-02  -8.1462248e-03  -2.3874583e-02  -9.1020053e-02   2.1957600e-02  -7.5982780e-02  -1.1116456e-01   9.9228897e-02  -1.5794108e-01  -7.9032456e-02   4.5886546e-02  -2.4278497e-02  -1.4587106e-01   2.6634116e-02  -4.6716251e-02  -1.3229051e-01   1.6643811e-01   7.5921041e-02  -1.9824057e-01
   1.3845052e-02   1.2600908e-02  -1.0622555e-02  -1.2284256e-02  -4.4998258e-02   5.5809478e-03  -4.7618130e-02  -1.1346595e-02  -2.7009219e-02   8.4273516e-02  -5.6762131e-03  -3.9177576e-02   5.2356835e-02  -9.5012543e-02   2.9776095e-02   1.2352940e-01   4.7140785e-02   9.9743650e-02  -1.0257042e-01   5.8897721e-02   2.4059454e-02   5.4961514e-02   1.6565839e-01  -1.2690219e-02   1.0352303e-01  -3.1360320e-02  -2.5296660e-03
   3.5249092e-03   2.8968561e-03  -9.8797143e-03  -9.0472546e-03  -2.0581076e-02  -1.6017798e-03  -8.7472520e-03  -1.0898955e-02  -7.4957649e-03  -1.7226582e-02   1.0604653e-02   6.4731003e-03   1.2522429e-02  -4.8180041e-03  -1.3253136e-03  -5.1553486e-02  -2.1217114e-02  -3.1346206e-03   6.6668421e-02   1.1651973e-01  -2.2727630e-02   2.9297687e-02  -1.0314905e-01  -9.8814434e-03   4.6632355e-02  -5.6543743e-02   2.8296760e-02
   5.1788140e-03  -2.7748218e-04  -2.9434603e-03   1.2342297e-03  -1.7565598e-02  -4.0194484e-02  -1.8694169e-02   6.8323203e-03   4.2508466e-02   2.9176573e-02   6.1013532e-02  -1.3826049e-02   3.0699679e-03   1.7579409e-02  -2.5051445e-03  -2.0272942e-02  -2.2521914e-02   4.3567394e-02   1.7404585e-02   7.5778470e-02   9.9655602e-03  -6.0647765e-02  -1.8013707e-02  -6.9360966e-02  -2.4709697e-02   3.3159689e-02   3.0709661e-02
   3.8979647e-04   6.2302945e-03  -2.3432442e-03  -1.4149126e-02  -1.5462376e-02  -3.1645065e-02   6.1187254e-03  -5.0890250e-02   4.1583124e-02   3.3749735e-02   2.5549260e-03   1.7450351e-02  -3.4771527e-02  -1.3613212e-02   8.8206764e-04   2.8183536e-02   4.7736304e-02  -1.4279542e-02  -3.3991718e-02  -3.9030010e-03  -4.8818421e-02  -1.7579886e-03  -3.2501426e-02   4.6552644e-02  -1.0756648e-02  -1.9105032e-02   3.8855056e-02
  -2.4835487e-03  -1.4139917e-02   6.6393912e-03  -2.0370901e-02  -2.0945894e-02   4.2883240e-02  -3.8183470e-02  -6.1383721e-02   2.1441338e-02   6.3774613e-02  -5.0391294e-02  -7.5335489e-02  -1.7009307e-01  -1.1994151e-01   5.7744037e-02   9.0275113e-02   2.1114055e-01  -3.6443357e-02   2.8671143e-02  -6.7732047e-02   6.1708971e-02   1.2611631e-01  -1.7535285e-01   4.0567568e-02  -1.5640111e-01   1.6932821e-01   1.1988013e-01
  -4.8542475e-03   1.8534693e-02  -8.3871647e-03   1.0239333e-02   3.1274819e-02  -2.9791299e-02  -2.7429008e-02  -2.3713300e-03   3.8898084e-02   4.1252246e-02  -4.5744658e-02   6.1347203e-02   8.4614413e-02   6.4871621e-03  -1.1924679e-01   1.5909704e-01   2.4835972e-03   6.0012280e-02   5.0730461e-02   3.2369297e-02  -7.8111744e-03   1.7782320e-01   1.1602598e-01  -1.6901023e-01   6.3734790e-02   5.5605043e-02  -2.0158186e-01
   9.9943008e-03   1.1584505e-04  -1.3012526e-02   1.2648633e-03  -3.4212079e-02  -3.9405798e-02   4.5556545e-02  -3.9315400e-02  -2.7820014e-02  -3.0083584e-02   4.2836233e-02   7.0034753e-02   2.8749584e-02   3.5887626e-02  -7.6314643e-02  -1.7862367e-03  -1.2692917e-01   3.3212669e-02   1.0625978e-02  -1.0871000e-01  -7.6113468e-03  -2.7045447e-01   7.8002059e-02  -2.2886311e-01   1.2586184e-01  -2.1480595e-01  -5.6664385e-02
  -5.5069581e-03  -9.2837260e-03   7.8177440e-05   1.0454104e-03   3.8346711e-02  -1.1186812e-01  -9.7345845e-02   6.4899729e-02   8.6847245e-03  -3.6048928e-02   1.8621921e-03  -1.0093650e-01   3.5402336e-02   3.4334755e-02   7.0407681e-02  -1.4430273e-02  -1.4326552e-01  -3.3391844e-02  -6.5825126e-02   5.8392934e-02  -5.8011043e-02   2.8024421e-02   1.6153880e-02   1.1544236e-01  -2.9666527e-01   4.0561754e-02   1.2703328e-02
   3.2596567e-03  -5.4398639e-03  -2.5352534e-03  -2.0059358e-03   2.3544494e-02   2.4719851e-02   2.6550478e-02   3.0539435e-02  -3.3069109e-02   1.3936225e-03  -7.7856813e-02  -8.7323094e-02  -5.8148211e-03  -1.3907698e-01   6.7254921e-02  -4.5266833e-02   6.3508990e-03   1.4623276e-02   7.1414364e-02   5.2211755e-02  -8.2163456e-02   6.1646645e-02   2.1923704e-01   2.1455494e-01   1.6631139e-01  -2.5847809e-01  -1.0124311e-02
  -1.2210769e-02   3.6245159e-03  -1.3108183e-02  -3.0304893e-02  -2.0820012e-02   9.4444156e-04   2.2993831e-02   4.2855159e-03   5.0789568e-02  -1.4627232e-03  -8.6992615e-03  -7.4634303e-02   2.4961926e-02  -6.1210066e-02  -1.2561068e-01   1.0805984e-01  -1.7002925e-01  -7.1828020e-02   5.3722472e-02  -1.6138861e-02  -1.3811309e-01   2.9890231e-02  -2.0612714e-02  -1.7025148e-01   1.4941273e-01   2.3006608e-02  -1.5614688e-01
   1.5576151e-02   1.4108105e-02  -1.4671844e-02  -1.5922064e-02  -5.0642499e-02   5.1484135e-03  -5.8563338e-02   1.0405907e-03  -2.7599670e-02   1.0323709e-01  -1.4317815e-02  -5.8210228e-02   5.8174189e-02  -1.2772706e-01   4.3832277e-02   1.5828642e-01   4.7542692e-02   1.3981737e-01  -1.4528297e-01   9.9493080e-02   1.8546924e-02   5.4264736e-02   2.2448961e-01  -1.8512201e-02   7.5163990e-02  -7.1132015e-02  -2.1437491e-02
   4.4062950e-03  -2.8629541e-03  -1.3347983e-02  -9.2508141e-03  -2.3693556e-02   3.1389998e-03  -5.3790085e-03  -6.1193471e-03   6.9513183e-03   1.6693804e-03   4.3898531e-02   3.8182777e-03   3.6970823e-02  -2.0246412e-03   1.0890965e-02  -6.0214076e-02  -3.1369657e-02   1.5668745e-02   1.6567411e-01   8.0596447e-02   8.4900476e-03   2.5248537e-02  -8.4122450e-02  -1.3120311e-02   3.0439914e-02  -1.3811682e-01   5.0566365e-02
   6.3429223e-03   3.7950479e-03  -5.4389815e-03  -5.1095253e-03  -2.3635739e-02  -5.4849972e-02  -1.9547829e-02  -2.8024281e-02   2.1834580e-02   3.2777260e-02   6.5359146e-02  -3.7896736e-03  -1.2189646e-04   1.9988294e-02   6.1852082e-03  -1.9110369e-02   7.2626308e-03   5.4194490e-02  -1.1786984e-02   9.6898949e-02  -5.9091984e-02  -6.7765730e-02  -1.4006601e-01  -1.0644657e-03   1.3582036e-02   3.3747175e-02   7.1271309e-02
   1.5160463e-03   4.2054388e-03  -3.5540482e-03  -1.2257690e-02  -1.0198283e-02  -3.0835146e-02   3.1393543e-03  -4.3838273e-02   2.1858990e-02   3.6023349e-02   3.3572289e-02   6.7136134e-03  -5.8949023e-03  -1.6778471e-02   2.6061433e-03   9.8834200e-03   6.4427136e-02   1.3565839e-02  -2.5793250e-02   3.6635463e-02  -1.9389126e-02  -4.5654881e-02  -6.3943895e-02   3.1598409e-02   6.8230705e-02  -8.3319352e-03   3.9286012e-02
   2.1165317e-04  -1.2530437e-02   4.9719498e-03  -1.7489400e-02  -2.1493222e-02   4.8531725e-02  -3.7636972e-02  -4.6233902e-02   2.8275172e-02   5.8579013e-02  -2.8720929e-02  -1.0314553e-01  -2.0246073e-01  -1.2686741e-01   6.3270311e-02   5.3693376e-02   2.0557072e-01  -2.2901200e-02   5.2737292e-02  -7.5373854e-02   4.8546756e-02   1.4209349e-01  -1.0263342e-01   4.9112126e-02  -2.1155449e-01   1.3977068e-01   1.1848330e-01
  -3.7751528e-03   1.7436655e-02  -9.2817165e-03   8.9761390e-03   3.9575310e-02  -4.3749963e-02  -4.0680121e-02   1.2193615e-02   4.8169203e-02   6.6426200e-02  -3.5141909e-02   6.2173637e-02   6.0760776e-02  -5.6601039e-03  -1.3675369e-01   1.6836167e-01  -1.8466727e-02   8.8990405e-02   4.7919846e-02   7.6297989e-02   2.7102830e-02   1.9300149e-01   2.1003463e-01  -1.2141070e-01  -4.7596644e-03   4.4866935e-02  -2.4726492e-01
   9.5559572e-03  -1.9315273e-04  -1.9864828e-02   3.4017438e-03  -3.6103472e-02  -5.1179080e-02   4.2536597e-02  -5.3432243e-02  -5.1089707e-02  -4.1670196e-02   4.9820400e-02   9.8868925e-02   1.5051729e-02   7.6670731e-02  -1.0013502e-01   7.4101733e-03  -1.7446244e-01   6.6911057e-02  -2.2813027e-02  -8.7634376e-02   1.9785889e-02  -2.6605223e-01   5.9336148e-02  -2.0057963e-01   1.7442600e-01  -2.3106453e-01   2.4692793e-03
  -5.5985295e-03  -6.4261817e-03   5.2678900e-04   2.4052353e-03   4.6215902e-02  -9.2886985e-02  -1.0785157e-01   7.3582850e-02  -1.2596177e-03  -2.3603883e-02  -5.7684561e-03  -9.2373082e-02   2.1104246e-02   4.2247695e-02   8.0948779e-02   1.6778291e-02  -1.2504592e-01  -6.6122480e-02  -4.9218808e-02   2.2272552e-02  -5.2276742e-02   2.0694978e-02   1.0830721e-02   1.0449382e-01  -2.6453167e-01   2.0271230e-02   7.7835815e-02
   3.3681837e-03  -1.2383350e-02  -2.5178644e-04   8.8033511e-03   1.9416476e-02   2.7530891e-02   1.5076768e-02   3.7306094e-02  -4.5446159e-02  -9.8787968e-03  -1.0398232e-01  -1.1028190e-01  -1.2280921e-02  -1.7149632e-01   5.4878629e-02  -7.9131335e-02  -1.7985276e-02   6.3538220e-02   1.2356304e-01   1.2307935e-01  -6.3551420e-02   1.1896122e-01   2.9686648e-01   2.3899421e-01   2.1594455e-01  -3.1024327e-01   1.1494318e-02
  -9.3030353e-03  -4.5547643e-04  -1.1813794e-02  -3.3195053e-02  -2.1155990e-02   4.7908041e-03   1.6363074e-02  -2.3149575e-03   3.9006061e-02   6.0268532e-03   3.7500542e-03  -4.9661508e-02   1.3206554e-02  -4.1802914e-02  -1.3947661e-01   1.1317565e-01  -1.7282264e-01  -5.5968374e-02   6.4197171e-02  -5.9467906e-03  -1.2943108e-01   4.0859436e-02  -1.0448001e-03  -1.8789114e-01   1.2630339e-01  -2.4489874e-02  -9.3553313e-02
   1.5582081e-02   1.4033692e-02  -1.6996307e-02  -1.7562585e-02  -5.0129106e-02   3.3945997e-03  -6.3197693e-02   1.0763193e-02  -2.4404694e-02   1.1083806e-01  -2.0243747e-02  -7.3741988e-02   5.4130432e-02  -1.4359498e-01   5.2833611e-02   1.7658772e-01   4.1700954e-02   1.5745624e-01  -1.7688865e-01   1.2648302e-01   1.2250197e-02   4.7567379e-02   2.5637633e-01  -2.0974355e-02   2.6207248e-02  -1.0307347e-01  -2.8917588e-02
   4.1692759e-03  -7.9257887e-03  -1.6895752e-02  -8.1763257e-03  -2.3002994e-02   6.2153253e-03   4.4323876e-04   3.9529560e-03   2.2858017e-02   1.9418067e-02   6.6424494e-02  -5.5850303e-03   6.3637721e-02   7.6019310e-03   2.0065436e-02  -6.2721168e-02  -4.0410243e-02   3.5333173e-02   2.5084434e-01   3.6144386e-02   4.6555151e-02   2.2066819e-02  -4.1037639e-02  -2.0510537e-02  -3.1354049e-03  -2.2404575e-01   6.9614008e-02
   6.3096927e-03   7.9533785e-03  -5.3028610e-03  -9.8598430e-03  -3.2773454e-02  -6.4049221e-02  -1.5643525e-02  -6.3691879e-02   2.3783175e-03   3.3186351e-02   5.6850094e-02   7.5266869e-03  -6.1247623e-03   1.5787850e-02   1.7043140e-02  -1.4006812e-02   3.8432141e-02   4.7001576e-02  -4.4576250e-02   1.1290828e-01  -1.3520043e-01  -6.5156525e-02  -2.6124820e-01   7.5917367e-02   5.6126828e-02   3.7111716e-02   1.0282072e-01
   2.9182672e-03   1.4817109e-03  -4.6671977e-03  -8.1033651e-03  -9.2129192e-04  -2.5825040e-02  -3.8011757e-03  -2.6581724e-02  -4.8949116e-03   3.6916584e-02   6.9757267e-02  -8.8366170e-03   2.5796156e-02  -2.2173943e-02   1.0063923e-02  -2.3792166e-02   6.5858621e-02   4.2913614e-02  -1.4748457e-02   8.3751390e-02   2.2369745e-02  -9.1311970e-02  -8.2533151e-02   5.0765903e-04   1.5686930e-01   1.2848524e-02   3.4351137e-02
