  -3.3024529e-02  -2.1604648e-02
  -1.8059789e-02  -1.5276390e-02
  -2.1583520e-02  -7.7581483e-02
  -2.1745697e-03  -4.7980678e-02
   3.4857726e-02   9.2513653e-03
   6.8576550e-03   6.3456509e-02
   1.0357408e-02  -2.8921423e-02
   6.4809502e-02  -3.9178460e-02
   1.3874729e-02   3.3145445e-02
  -3.3590307e-02   5.7828082e-03
  -2.4635450e-02  -1.5788616e-02
  -1.6571988e-02  -1.6181547e-02
  -1.8387703e-02  -6.3590967e-02
  -2.3452389e-03  -1.1154104e-02
   5.4499741e-03   3.0139776e-03
   4.9242151e-03   2.0330523e-02
   9.5703674e-03  -3.1321741e-02
   5.1697971e-02  -2.8937791e-02
   1.3571867e-02   2.4588572e-02
  -2.7998163e-02   1.0200875e-02
  -1.7893544e-02  -1.0453836e-02
  -1.5228731e-02  -1.7818410e-02
  -1.5524632e-02  -5.0209662e-02
  -1.9026314e-03   8.3394927e-03
  -9.6405146e-03  -5.5831702e-04
   2.9213308e-03  -4.1898936e-03
   8.5299141e-03  -3.2012855e-02
   3.9261662e-02  -1.9766074e-02
   1.2910983e-02   1.7213324e-02
  -2.2865636e-02   1.4117727e-02
  -1.2565461e-02  -5.8490624e-03
  -1.4038090e-02  -1.9604336e-02
  -1.2965036e-02  -3.8099180e-02
  -1.4983459e-03   1.4947323e-02
  -1.4295786e-02  -2.3641895e-03
   1.2497446e-03  -1.4401883e-02
   7.3575145e-03  -3.1289162e-02
   2.7705785e-02  -1.1673977e-02
   1.1975685e-02   1.1050632e-02
  -1.8255497e-02   1.7522233e-02
  -8.4692661e-03  -2.1292837e-03
  -1.2999874e-02  -2.1165167e-02
  -1.0688530e-02  -2.7713196e-02
  -1.4176989e-03   1.3095833e-02
  -1.2398247e-02  -3.0569967e-03
   1.7001456e-04  -1.4776155e-02
   6.1649154e-03  -2.9449951e-02
   1.7210950e-02  -4.6823021e-03
   1.0857154e-02   6.0955690e-03
  -1.4217561e-02   2.0391985e-02
  -5.4687869e-03   6.4716034e-04
  -1.2118261e-02  -2.2316994e-02
  -8.6817665e-03  -1.9312026e-02
  -1.6632471e-03   6.7991715e-03
  -7.3606771e-03  -3.0731819e-03
  -2.1714035e-04  -9.4449568e-03
   5.0481029e-03  -2.6786650e-02
   7.9227893e-03   1.1906176e-03
   9.6469215e-03   2.3033809e-03
  -1.0786389e-02   2.2701615e-02
  -3.4585869e-03   2.5074049e-03
  -1.1407538e-02  -2.3031809e-02
  -6.9376117e-03  -1.2985587e-02
  -2.0664275e-03  -6.4857451e-04
  -1.8002399e-03  -2.6924431e-03
   3.8802155e-05  -1.8229377e-03
   4.0835276e-03  -2.3572780e-02
  -5.3246444e-05   5.9361736e-03
   8.4306266e-03  -4.1112608e-04
  -7.9790550e-03   2.4430772e-02
  -2.3439297e-03   3.5440733e-03
  -1.0890967e-02  -2.3392731e-02
  -5.4546687e-03  -8.6824235e-03
  -2.4000868e-03  -6.8690699e-03
   2.6091624e-03  -2.0909742e-03
   7.7565237e-04   5.6051561e-03
   3.3263862e-03  -2.0056368e-02
  -6.6516826e-03   9.5573838e-03
   7.2830937e-03  -2.1698518e-03
  -5.7931516e-03   2.5571113e-02
  -2.0205432e-03   3.8947464e-03
  -1.0594542e-02  -2.3544588e-02
  -4.2365136e-03  -6.2427179e-03
  -2.4690272e-03  -1.0471378e-02
   5.1074573e-03  -1.3707007e-03
   1.7720983e-03   1.1322281e-02
   2.8101344e-03  -1.6453755e-02
  -1.1843525e-02   1.2068670e-02
   6.2648711e-03  -3.1230540e-03
  -4.2055611e-03   2.6132032e-02
  -2.3593638e-03   3.7250327e-03
  -1.0538387e-02  -2.3645601e-02
  -3.2900907e-03  -5.4324703e-03
  -2.1653548e-03  -1.1001422e-02
   5.6738199e-03  -5.8065802e-04
   2.8018464e-03   1.4668125e-02
   2.5463647e-03  -1.2943705e-02
  -1.5632573e-02   1.3498140e-02
   5.4201938e-03  -3.4370144e-03
  -3.1725768e-03   2.6145088e-02
  -3.2009721e-03   3.2122448e-03
  -1.0728677e-02  -2.3825712e-02
  -2.6232456e-03  -5.9763396e-03
  -1.4871415e-03  -8.7850372e-03
   4.7645612e-03   2.5007035e-04
   3.6782541e-03   1.5643357e-02
   2.5245831e-03  -9.6619210e-03
  -1.8054075e-02   1.3894595e-02
   4.7761728e-03  -3.2793775e-03
  -2.6317540e-03   2.5666851e-02
  -4.3608878e-03   2.5286534e-03
  -1.1152085e-02  -2.4156253e-02
  -2.2417923e-03  -7.5870202e-03
  -5.2824118e-04  -4.6936974e-03
   3.0346716e-03   1.0721322e-03
   4.2835319e-03   1.4693900e-02
   2.7121297e-03  -6.6974305e-03
  -1.9176414e-02   1.3336929e-02
   4.3429236e-03  -2.8046402e-03
  -2.5054240e-03   2.4779562e-02
  -5.6430987e-03   1.8273291e-03
  -1.1773538e-02  -2.4633993e-02
  -2.1463571e-03  -9.9883425e-03
   5.4947254e-04   1.2988083e-04
   1.1048852e-03   1.7799590e-03
   4.5758563e-03   1.2500830e-02
   3.0552006e-03  -4.0924181e-03
  -1.9104053e-02   1.1941309e-02
   4.1143923e-03  -2.1423062e-03
  -2.7052949e-03   2.3588991e-02
  -6.8583405e-03   1.2298866e-03
  -1.2537238e-02  -2.5181356e-02
  -2.3292639e-03  -1.2930217e-02
   1.5518450e-03   4.5451121e-03
  -5.8336240e-04   2.2085217e-03
   4.5734670e-03   9.7832964e-03
   3.4820129e-03  -1.8463074e-03
  -1.7978366e-02   9.8623194e-03
   4.0696721e-03  -1.3896218e-03
  -3.1373039e-03   2.2219292e-02
  -7.8429416e-03   8.1626528e-04
  -1.3370590e-02  -2.5662707e-02
  -2.7719000e-03  -1.6195744e-02
   2.2895370e-03   7.6420836e-03
  -1.8104529e-03   2.1906640e-03
   4.3263043e-03   7.1374593e-03
   3.9084699e-03   7.6114149e-05
  -1.5973599e-02   7.2864817e-03
   4.1746803e-03  -6.0966063e-04
  -3.7060467e-03   2.0805087e-02
  -8.4737024e-03   6.2068380e-04
  -1.4190450e-02  -2.5912997e-02
  -3.4430628e-03  -1.9602743e-02
   2.6125179e-03   8.8876612e-03
  -2.5420954e-03   1.6431341e-03
   3.8907988e-03   4.9426673e-03
   4.2457540e-03   1.7338926e-03
  -1.3287583e-02   4.4192182e-03
   4.3842134e-03   1.6570522e-04
  -4.3185601e-03   1.9481487e-02
  -8.6762486e-03   6.3528626e-04
  -1.4911107e-02  -2.5771963e-02
  -4.2984702e-03  -2.3001909e-02
   2.4399134e-03   8.1724490e-03
  -2.8568752e-03   6.2253636e-04
   3.3192598e-03   3.3530330e-03
   4.4086015e-03   3.1987124e-03
  -1.0129379e-02   1.4691199e-03
   4.6444485e-03   9.2902072e-04
  -4.8876265e-03   1.8373424e-02
  -8.4264998e-03   8.1958147e-04
  -1.5453494e-02  -2.5116627e-02
  -5.2810007e-03  -2.6271518e-02
   1.7831214e-03   5.7686280e-03
  -2.8735917e-03  -6.7322767e-04
   2.6659699e-03   2.3659546e-03
   4.3228265e-03   4.5453802e-03
  -6.7072870e-03  -1.3654842e-03
   4.8959616e-03   1.6880543e-03
  -5.3350081e-03   1.7585786e-02
  -7.7461122e-03   1.1130315e-03
  -1.5754992e-02  -2.3886379e-02
  -6.3214043e-03  -2.9308681e-02
   7.5873336e-04   2.2301805e-03
  -2.6995498e-03  -1.9518080e-03
   1.9995894e-03   1.9190939e-03
   3.9309818e-03   5.8445319e-03
  -3.2203302e-03  -3.9050736e-03
   5.0772524e-03   2.4555151e-03
  -5.5950335e-03   1.7195112e-02
  -6.6938917e-03   1.4464637e-03
  -1.5778767e-02  -2.2097781e-02
  -7.3398251e-03  -3.2018903e-02
  -4.1320131e-04  -1.7247635e-03
  -2.4065690e-03  -2.8987803e-03
   1.4086676e-03   1.9608193e-03
   3.1959186e-03   7.1566550e-03
   1.4558544e-04  -5.9942125e-03
   5.1287429e-03   3.2387841e-03
  -5.6186369e-03   1.7242808e-02
  -5.3552405e-03   1.7496393e-03
  -1.5521412e-02  -1.9849806e-02
  -8.2490243e-03  -3.4307610e-02
  -1.4306970e-03  -5.3227230e-03
  -2.0320472e-03  -3.2530188e-03
   9.9673175e-04   2.4780124e-03
   2.1030775e-03   8.5263085e-03
   3.2184145e-03  -7.5068099e-03
   4.9972428e-03   4.0305570e-03
  -5.3774364e-03   1.7729612e-02
  -3.8308914e-03   1.9565556e-03
  -1.5017424e-02  -1.7322072e-02
  -8.9602653e-03  -3.6077645e-02
  -1.9557961e-03  -7.8357004e-03
  -1.5986400e-03  -2.8748969e-03
   8.6795340e-04   3.4829548e-03
   6.6280965e-04   9.9761081e-03
   5.8411761e-03  -8.3535563e-03
   4.6407057e-03   4.8008012e-03
  -4.8670571e-03   1.8611351e-02
  -2.2264029e-03   2.0092019e-03
  -1.4338922e-02  -1.4767077e-02
  -9.3920946e-03  -3.7233711e-02
  -1.6838618e-03  -8.6881363e-03
  -1.1406992e-03  -1.7922045e-03
   1.1050709e-03   4.9650304e-03
  -1.0864935e-03   1.1500823e-02
   7.8768186e-03  -8.4919084e-03
   4.0328909e-03   5.4904490e-03
  -4.1089480e-03   1.9796515e-02
  -6.4371286e-04   1.8598704e-03
  -1.3589170e-02  -1.2494806e-02
  -9.4819741e-03  -3.7694025e-02
  -4.2581164e-04  -7.5747910e-03
  -7.2012366e-04  -1.9382043e-04
   1.7466467e-03   6.8379913e-03
  -3.0747239e-03   1.3062767e-02
   9.2175763e-03  -7.9369960e-03
   3.1674182e-03   6.0076110e-03
  -3.1502963e-03   2.1146661e-02
   8.2535880e-04   1.4753459e-03
  -1.2889499e-02  -1.0846713e-02
  -9.2003343e-03  -3.7409165e-02
   1.8142079e-03  -4.5754890e-03
  -4.2048715e-04   1.6366297e-03
   2.7702895e-03   8.9156460e-03
  -5.1968716e-03   1.4590442e-02
   9.7968314e-03  -6.7697236e-03
   2.0606453e-03   6.2268377e-03
  -2.0620838e-03   2.2480955e-02
   2.1041585e-03   8.4460767e-04
  -1.2360766e-02  -1.0157944e-02
  -8.5653626e-03  -3.6385005e-02
   4.7864289e-03  -2.3183763e-04
  -3.2313100e-04   3.4076839e-03
   4.0815195e-03   1.0919983e-02
  -7.3116687e-03   1.5981924e-02
   9.5997673e-03  -5.1376455e-03
   7.5285886e-04   5.9913648e-03
  -9.3570650e-04   2.3585615e-02
   3.1348493e-03  -1.3321143e-05
  -1.2102125e-02  -1.0711351e-02
  -7.6556378e-03  -3.4703698e-02
   7.9884258e-03   4.4628267e-03
  -4.7759197e-04   4.8742886e-03
   5.5057405e-03   1.2506871e-02
  -9.2431427e-03   1.7112592e-02
   8.6690333e-03  -3.2469680e-03
  -6.9249772e-04   5.1178282e-03
   1.2133593e-04   2.4228031e-02
   3.8812381e-03  -1.0445261e-03
  -1.2171162e-02  -1.2692126e-02
  -6.6170880e-03  -3.2535535e-02
   1.0717603e-02   8.2002477e-03
  -8.7874875e-04   5.8331386e-03
   6.7863391e-03   1.3300116e-02
  -1.0785260e-02   1.7845305e-02
   7.1034408e-03  -1.3482085e-03
  -2.1915467e-03   3.4025288e-03
   9.9028868e-04   2.4173805e-02
   4.3321335e-03  -2.1577109e-03
  -1.2569821e-02  -1.6155081e-02
  -5.6612839e-03  -3.0137001e-02
   1.2185690e-02   9.6222504e-03
  -1.4592214e-03   6.0734471e-03
   7.5981538e-03   1.2934760e-02
  -1.1708771e-02   1.8040661e-02
   5.0506951e-03   2.7992357e-04
  -3.6443263e-03   6.2829796e-04
   1.5465480e-03   2.3204520e-02
   4.5053861e-03  -3.2246589e-03
  -1.3240051e-02  -2.1015848e-02
  -5.0531540e-03  -2.7833656e-02
   1.1683606e-02   7.6629597e-03
  -2.0970854e-03   5.3432521e-03
   7.5888798e-03   1.1120551e-02
  -1.1768790e-02   1.7565545e-02
   2.6976224e-03   1.3447633e-03
  -4.9401658e-03  -3.4284574e-03
   1.6659680e-03   2.1134303e-02
   4.4508336e-03  -4.0869987e-03
  -1.4071610e-02  -2.7071366e-02
  -5.0867970e-03  -2.5986151e-02
   8.7759490e-03   1.8892320e-03
  -2.6349301e-03   3.3973538e-03
   6.4605158e-03   7.7489643e-03
  -1.0711921e-02   1.6299202e-02
   2.6171550e-04   1.5508099e-03
  -5.9634477e-03  -8.9904606e-03
   1.2321714e-03   1.7823223e-02
   4.2501307e-03  -4.5694262e-03
  -1.4922386e-02  -3.4046691e-02
  -6.0499222e-03  -2.4940638e-02
   3.5017698e-03  -7.2287280e-03
  -2.9115318e-03   1.3768428e-04
   4.0904784e-03   3.0488478e-03
  -8.2826387e-03   1.4137270e-02
  -2.0140994e-03   6.0871984e-04
  -6.5993227e-03  -1.6271773e-02
   1.4451690e-04   1.3186152e-02
   4.0121455e-03  -4.4952263e-03
  -1.5649992e-02  -4.1659195e-02
  -8.1801717e-03  -2.4970463e-02
  -3.4454489e-03  -1.8162095e-02
  -2.8054979e-03  -4.1876014e-03
   6.6824393e-04  -2.2593869e-03
  -4.2295044e-03   1.0995079e-02
  -3.8643645e-03  -1.7550118e-03
  -6.7391737e-03  -2.5469333e-02
  -1.6741080e-03   7.1965138e-03
   3.8636488e-03  -3.6979925e-03
  -1.6152030e-02  -4.9689181e-02
  -1.1617602e-02  -2.6215184e-02
  -1.0590452e-02  -2.8304775e-02
  -2.2789939e-03  -8.7682350e-03
  -3.1937675e-03  -6.8964716e-03
   1.6877322e-03   6.8112677e-03
  -5.0046509e-03  -5.7848120e-03
  -6.2857965e-03  -3.6754112e-02
  -4.2708389e-03  -1.1534911e-04
   3.9364386e-03  -2.0233983e-03
  -1.6411117e-02  -5.8046815e-02
  -1.6358729e-02  -2.8623812e-02
  -1.5633642e-02  -3.4084128e-02
  -1.4042268e-03  -1.2051146e-02
  -6.4164358e-03  -9.1176588e-03
   9.6894452e-03   1.5517341e-03
  -5.1393127e-03  -1.1679561e-02
  -5.1582755e-03  -5.0262755e-02
  -7.6587893e-03  -8.6691854e-03
   4.3527439e-03   6.8060443e-04
  -1.6539128e-02  -6.6827170e-02
  -2.2218948e-02  -3.1913099e-02
  -1.5520968e-02  -3.1180810e-02
  -3.6340746e-04  -1.1672719e-02
  -7.4973039e-03  -6.9710405e-03
   1.9966068e-02  -4.7870125e-03
  -3.9751937e-03  -1.9576378e-02
  -3.2963457e-03  -6.6090472e-02
  -1.1815743e-02  -1.8346154e-02
   5.2109210e-03   4.5811102e-03
  -1.6813936e-02  -7.6347601e-02
  -2.8809139e-02  -3.5548710e-02
  -6.6425882e-03  -1.4841492e-02
   5.7706430e-04  -4.5749986e-03
  -4.6312528e-03   1.3554296e-03
   3.2667990e-02  -1.2176037e-02
  -1.2396227e-03  -2.9538229e-02
  -6.6378940e-04  -8.4285496e-02
  -1.6684957e-02  -2.9001913e-02
   6.5733772e-03   9.8777921e-03
  -1.7701936e-02  -8.7165084e-02
  -3.5529104e-02  -3.8747871e-02
   1.4845760e-02   1.9735107e-02
   1.1178760e-03   1.2698788e-02
   4.1171341e-03   1.7191190e-02
   4.7897424e-02  -2.0553683e-02
   3.3016564e-03  -4.1547627e-02
   2.7496674e-03  -1.0484494e-01
  -2.2177199e-02  -4.0479520e-02
   8.4584099e-03   1.6813732e-02
  -1.9861063e-02  -1.0007384e-01
  -4.1578248e-02  -4.0497843e-02
   5.2613277e-02   7.6975831e-02
   9.9781381e-04   4.3590402e-02
   2.0617705e-02   4.1108630e-02
   6.5703877e-02  -2.9826016e-02
   9.8312292e-03  -5.5507456e-02
   6.9283327e-03  -1.2771162e-01
  -2.8173475e-02  -5.2621426e-02
