  -5.3450030e-02  -6.9684170e-02
  -1.8596662e-02  -1.1466381e-02
  -8.7687729e-04   2.2366871e-02
  -1.4367625e-02   2.0655474e-02
   1.5765324e-02   5.0614307e-03
   1.4377504e-02  -2.4570935e-02
   3.4960673e-02   9.0706516e-02
   2.5824876e-02   3.4513305e-02
   5.2763062e-02  -1.1491464e-01
   2.1304797e-02  -3.7252183e-02
  -4.5299382e-02  -6.2693861e-02
  -1.7628810e-02  -9.0064096e-03
  -3.8670909e-03   1.3860358e-02
  -1.3432892e-03   1.4700351e-02
   4.4115079e-03   1.5651314e-03
   8.3674911e-03  -1.1207537e-02
   2.7561118e-02   6.4071011e-02
   1.8979873e-02   1.7663825e-02
   3.5866770e-02  -8.7724054e-02
   1.5216291e-02  -3.5966721e-02
  -3.8349881e-02  -5.5973835e-02
  -1.5834679e-02  -6.2943747e-03
  -5.9514656e-03   7.4026285e-03
   6.6386275e-03   1.0964758e-02
  -3.8374267e-03  -1.8923155e-05
   4.1544321e-03  -1.4104787e-03
   2.1002273e-02   4.1969363e-02
   1.2832138e-02   5.0928168e-03
   2.2731438e-02  -6.3779535e-02
   1.0246087e-02  -3.3150564e-02
  -3.2358883e-02  -4.9607847e-02
  -1.3308994e-02  -3.7775545e-03
  -7.1220932e-03   2.8113702e-03
   1.0749871e-02   9.2295812e-03
  -9.0904507e-03  -7.4590230e-04
   1.6076995e-03   4.7458021e-03
   1.5300960e-02   2.4252128e-02
   7.4906707e-03  -3.5845994e-03
   1.3006779e-02  -4.3441748e-02
   6.3566759e-03  -2.9230141e-02
  -2.7101934e-02  -4.3713455e-02
  -1.0240970e-02  -1.8078034e-03
  -7.4438431e-03  -1.8687008e-04
   1.2208191e-02   8.9990796e-03
  -1.1734482e-02  -1.4596747e-03
   4.6338502e-04   7.6221142e-03
   1.0454887e-02   1.0664354e-02
   3.0277345e-03  -8.8341286e-03
   6.2620862e-03  -2.6878741e-02
   3.4698529e-03  -2.4636442e-02
  -2.2394212e-02  -3.8410947e-02
  -6.8971498e-03  -5.7798091e-04
  -7.0552279e-03  -1.8859315e-03
   1.2116382e-02   9.6964228e-03
  -1.2375879e-02  -2.6391670e-03
   3.8248411e-04   7.8883405e-03
   6.4467773e-03   8.4679632e-04
  -5.2411287e-04  -1.1185766e-02
   2.0313759e-03  -1.4093583e-02
   1.4720678e-03  -1.9774655e-02
  -1.8104160e-02  -3.3791299e-02
  -3.5733498e-03  -1.3068891e-04
  -6.1447057e-03  -2.5685700e-03
   1.1356636e-02   1.0813055e-02
  -1.1720239e-02  -4.4057793e-03
   1.0109257e-03   6.3749148e-03
   3.2424053e-03  -5.6464524e-03
  -3.1746887e-03  -1.1206892e-02
  -1.5717935e-04  -4.9445295e-03
   2.2407412e-04  -1.5001857e-02
  -1.4155956e-02  -2.9893765e-02
  -5.4182787e-04  -4.0238792e-04
  -4.9180052e-03  -2.4977307e-03
   1.0544655e-02   1.1991190e-02
  -1.0446152e-02  -6.6159651e-03
   2.0286119e-03   3.9313018e-03
   7.8709239e-04  -9.3207466e-03
  -4.9748750e-03  -9.4735241e-03
  -7.6327150e-04   8.3905348e-04
  -4.2726598e-04  -1.0612454e-02
  -1.0521784e-02  -2.6697377e-02
   1.9898320e-03  -1.2744249e-03
  -3.5676762e-03  -1.9170634e-03
   1.0034826e-02   1.3041777e-02
  -9.1077404e-03  -8.9806125e-03
   3.1810133e-03   1.3110134e-03
  -9.9622024e-04  -1.0710106e-02
  -6.0105330e-03  -6.5447593e-03
  -2.2325129e-04   3.6408822e-03
  -6.3707274e-04  -6.8303000e-03
  -7.2073790e-03  -2.4125760e-02
   3.9006098e-03  -2.6135038e-03
  -2.2514597e-03  -1.0519326e-03
   9.9609214e-03   1.3915215e-02
  -8.0817166e-03  -1.1173264e-02
   4.2919975e-03  -9.0604941e-04
  -2.2057398e-03  -1.0346821e-02
  -6.3927753e-03  -2.9419528e-03
   1.0583810e-03   3.9386921e-03
  -5.5206940e-04  -3.8061155e-03
  -4.2352797e-03  -2.2061335e-02
   5.1584056e-03  -4.2945897e-03
  -1.0818585e-03  -1.0679021e-04
   1.0295536e-02   1.4647376e-02
  -7.5590018e-03  -1.2909196e-02
   5.2604049e-03  -2.3509473e-03
  -2.9562207e-03  -8.7337316e-03
  -6.2466421e-03   8.6806349e-04
   2.7175768e-03   2.2803946e-03
  -3.0275576e-04  -1.6188299e-03
  -1.6296382e-03  -2.0364067e-02
   5.8073508e-03  -6.2070395e-03
  -1.2580129e-04   7.4168520e-04
   1.0914002e-02   1.5301790e-02
  -7.5701690e-03  -1.3991966e-02
   6.0452793e-03  -2.8664930e-03
  -3.3717371e-03  -6.3208862e-03
  -5.7002912e-03   4.4866320e-03
   4.4404731e-03  -7.4424715e-04
   1.4900050e-06  -2.7992821e-04
   5.9502712e-04  -1.8890529e-02
   5.9466974e-03  -8.2491132e-03
   5.8881458e-04   1.3540069e-03
   1.1652459e-02   1.5923713e-02
  -8.0295911e-03  -1.4331850e-02
   6.6453462e-03  -2.4794015e-03
  -3.5768987e-03  -3.4880384e-03
  -4.8761499e-03   7.5940353e-03
   5.9736189e-03  -4.5349402e-03
   2.7457387e-04   2.5968012e-04
   2.4402340e-03  -1.7510369e-02
   5.7076463e-03  -1.0317492e-02
   1.0634829e-03   1.6372048e-03
   1.2353384e-02   1.6515737e-02
  -8.7846225e-03  -1.3943344e-02
   7.0778466e-03  -1.3536267e-03
  -3.6873904e-03  -5.3416854e-04
  -3.8844357e-03   9.9569984e-03
   7.1330274e-03  -8.5131045e-03
   4.5368150e-04   1.0061629e-04
   3.9252497e-03  -1.6118408e-02
   5.2327831e-03  -1.2298001e-02
   1.3195806e-03   1.5513460e-03
   1.2895446e-02   1.7038273e-02
  -9.6600122e-03  -1.2928790e-02
   7.3608261e-03   2.6484135e-04
  -3.8005110e-03   2.3251192e-03
  -2.8186869e-03   1.1432103e-02
   7.8100562e-03  -1.2152985e-02
   4.9779594e-04  -6.1580398e-04
   5.0849888e-03  -1.4641572e-02
   4.6606523e-03  -1.4061895e-02
   1.3910817e-03   1.1110585e-03
   1.3208223e-02   1.7431222e-02
  -1.0491537e-02  -1.1454612e-02
   7.5017336e-03   2.1019095e-03
  -3.9865300e-03   4.9517914e-03
  -1.7527966e-03   1.1964091e-02
   7.9723103e-03  -1.5010049e-02
   3.8534865e-04  -1.7197246e-03
   5.9655229e-03  -1.3041029e-02
   4.1159904e-03  -1.5469278e-02
   1.3202447e-03   3.8109170e-04
   1.3275161e-02   1.7646702e-02
  -1.1146510e-02  -9.7258100e-03
   7.4934524e-03   3.9003043e-03
  -4.2820275e-03   7.2715687e-03
  -7.3938651e-04   1.1578499e-02
   7.6583971e-03  -1.6745552e-02
   1.1143159e-04  -3.0256397e-03
   6.6187388e-03  -1.1310806e-02
   3.7046515e-03  -1.6378765e-02
   1.1557879e-03  -5.3355000e-04
   1.3128855e-02   1.7680152e-02
  -1.1532497e-02  -7.9619307e-03
   7.3172105e-03   5.4510611e-03
  -4.6865092e-03   9.2542539e-03
   1.9027081e-04   1.0369324e-02
   6.9662597e-03  -1.7146497e-02
  -3.1518829e-04  -4.3453141e-03
   7.0973869e-03  -9.4744096e-03
   3.5117128e-03  -1.6661071e-02
   9.5232217e-04  -1.5014523e-03
   1.2841595e-02   1.7588840e-02
  -1.1598101e-02  -6.3754690e-03
   6.9507801e-03   6.6102616e-03
  -5.1633534e-03   1.0892013e-02
   1.0244439e-03   8.4837429e-03
   6.0357596e-03  -1.6140126e-02
  -8.7510036e-04  -5.4999588e-03
   7.4512285e-03  -7.5808153e-03
   3.6015704e-03  -1.6213922e-02
   7.6978763e-04  -2.3808622e-03
   1.2512740e-02   1.7491016e-02
  -1.1329701e-02  -5.1524963e-03
   6.3796585e-03   7.3023044e-03
  -5.6457012e-03   1.2179817e-02
   1.7670341e-03   6.1062141e-03
   5.0269923e-03  -1.3801391e-02
  -1.5411855e-03  -6.3310614e-03
   7.7244430e-03  -5.7006041e-03
   4.0193585e-03  -1.4975941e-02
   6.7206351e-04  -3.0364216e-03
   1.2253792e-02   1.7544282e-02
  -1.0746322e-02  -4.4348712e-03
   5.6084453e-03   7.5132826e-03
  -6.0471723e-03   1.3101459e-02
   2.4317190e-03   3.4434912e-03
   4.0964818e-03  -1.0351165e-02
  -2.2813040e-03  -6.7096030e-03
   7.9540986e-03  -3.9221573e-03
   4.7930882e-03  -1.2937485e-02
   7.2411466e-04  -3.3554287e-03
   1.2171552e-02   1.7907284e-02
  -9.8939908e-03  -4.3040515e-03
   4.6696798e-03   7.2793277e-03
  -6.2761278e-03   1.3623414e-02
   3.0349723e-03   7.1112338e-04
   3.3739550e-03  -6.1428842e-03
  -3.0605709e-03  -6.5435666e-03
   8.1693235e-03  -2.3471621e-03
   5.9356754e-03  -1.0146649e-02
   9.8711282e-04  -3.2626206e-03
   1.2349595e-02   1.8693486e-02
  -8.8409322e-03  -4.7672253e-03
   3.6280618e-03   6.6745061e-03
  -6.2510901e-03   1.3697381e-02
   3.5893923e-03  -1.8788110e-03
   2.9428396e-03  -1.6360304e-03
  -3.8430722e-03  -5.7836636e-03
   8.3908242e-03  -1.0843909e-03
   7.4460816e-03  -6.7088702e-03
   1.5112882e-03  -2.7325141e-03
   1.2829125e-02   1.9928058e-02
  -7.6743801e-03  -5.7468551e-03
   2.5789055e-03   5.8013682e-03
  -5.9145534e-03   1.3270625e-02
   4.0988075e-03  -4.1296409e-03
   2.8276170e-03   2.6438727e-03
  -4.5929467e-03  -4.4272323e-03
   8.6305029e-03  -2.4074736e-04
   9.3093173e-03  -2.7788756e-03
   2.3267227e-03  -1.7980988e-03
   1.3591868e-02   2.1518275e-02
  -6.4984646e-03  -7.0753639e-03
   1.6405344e-03   4.7850698e-03
  -5.2429623e-03   1.2301854e-02
   4.5559794e-03  -5.8728070e-03
   2.9904187e-03   6.1571045e-03
  -5.2748858e-03  -2.5202661e-03
   8.8910532e-03   9.1013730e-05
   1.1495831e-02   1.4559162e-03
   3.4329022e-03  -5.5397443e-04
   1.4548881e-02   2.3245946e-02
  -5.4310600e-03  -8.4969590e-03
   9.4109585e-04   3.7696741e-03
  -4.2517301e-03   1.0779855e-02
   4.9427717e-03  -6.9817568e-03
   3.3379922e-03   8.4093948e-03
  -5.8541837e-03  -1.5738954e-04
   9.1656650e-03  -1.5211465e-04
   1.3961468e-02   5.8004219e-03
   4.7885727e-03   8.4790305e-04
   1.5539192e-02   2.4788472e-02
  -4.5966284e-03  -9.6794076e-03
   6.0090811e-04   2.9132092e-03
  -2.9952759e-03   8.7423938e-03
   5.2319462e-03  -7.3860275e-03
   3.7386785e-03   9.0133222e-03
  -6.2964752e-03   2.5205295e-03
   9.4382803e-03  -9.8555297e-04
   1.6649501e-02   1.0083047e-02
   6.3040551e-03   2.2099317e-03
   1.6341529e-02   2.5771266e-02
  -4.1125974e-03  -1.0240591e-02
   7.1177356e-04   2.3769249e-03
  -1.5629337e-03   6.2934583e-03
   5.3895118e-03  -7.0834069e-03
   4.0473708e-03   7.7444796e-03
  -6.5672165e-03   5.3313369e-03
   9.6850130e-03  -2.3597174e-03
   1.9496080e-02   1.4187895e-02
   7.8384103e-03   3.3055243e-03
   1.6701398e-02   2.5847656e-02
  -4.0681848e-03  -9.7955992e-03
   1.3147224e-03   2.3049778e-03
  -7.2187572e-05   3.6171313e-03
   5.3767115e-03  -6.1481383e-03
   4.1347765e-03   4.5860982e-03
  -6.6308774e-03   8.0588841e-03
   9.8773244e-03  -4.1470320e-03
   2.2439740e-02   1.8080734e-02
   9.2032578e-03   3.8959060e-03
   1.6374212e-02   2.4793987e-02
  -4.4969826e-03  -8.0288954e-03
   2.3776408e-03   2.7938079e-03
   1.3392351e-03   9.8677126e-04
   5.1512835e-03  -4.7339911e-03
   3.9162007e-03  -2.4203688e-04
  -6.4497603e-03   1.0461854e-02
   9.9872082e-03  -6.1380335e-03
   2.5434493e-02   2.1820471e-02
   1.0173770e-02   3.7406309e-03
   1.5182434e-02   2.2599235e-02
  -5.3475244e-03  -4.7928228e-03
   3.7743932e-03   3.8548920e-03
   2.5213301e-03  -1.2311604e-03
   4.6684065e-03  -3.0718889e-03
   3.3747720e-03  -6.2716723e-03
  -5.9823534e-03   1.2282873e-02
   9.9940121e-03  -8.0509515e-03
   2.8464782e-02   2.5548825e-02
   1.0505934e-02   2.5950264e-03
   1.3081044e-02   1.9522190e-02
  -6.4584867e-03  -2.2764475e-04
   5.2674878e-03   5.3791830e-03
   3.3193293e-03  -2.5786231e-03
   3.8822753e-03  -1.4626549e-03
   2.5747776e-03  -1.2789472e-02
  -5.1812512e-03   1.3256437e-02
   9.8918307e-03  -9.5574843e-03
   3.1559102e-02   2.9453930e-02
   9.9573728e-03   1.8932746e-04
   1.0221856e-02   1.6087457e-02
  -7.5466815e-03   5.1094554e-03
   6.4969931e-03   7.1148926e-03
   3.5806948e-03  -2.5125556e-03
   2.7492474e-03  -2.6625574e-04
   1.6628144e-03  -1.8851794e-02
  -3.9909600e-03   1.3114227e-02
   9.6958280e-03  -1.0324637e-02
   3.4797743e-02   3.3709184e-02
   8.3070099e-03  -3.8111499e-03
   7.0037772e-03   1.2996417e-02
  -8.2157303e-03   1.0126524e-02
   6.9791383e-03   8.6710264e-03
   3.1618317e-03  -4.1601708e-04
   1.2329629e-03   1.1063190e-04
   8.5741257e-04  -2.3306756e-02
  -2.3462737e-03   1.1586922e-02
   9.4456088e-03  -1.0068985e-02
   3.8309442e-02   3.8397143e-02
   5.3675797e-03  -9.8576758e-03
   4.0934901e-03   1.0944403e-02
  -7.9911615e-03   1.3117905e-02
   6.1186682e-03   9.5562624e-03
   1.9350813e-03   4.3863633e-03
  -6.8888115e-04  -7.7293469e-04
   4.3096692e-04  -2.4822198e-02
  -1.7218383e-04   8.4026826e-03
   9.2041101e-03  -8.6163083e-03
   4.2252151e-02   4.3438825e-02
   9.8516422e-04  -1.8565403e-02
   2.4002754e-03   1.0360806e-02
  -6.3844159e-03   1.1759249e-02
   3.2391654e-03   9.2554730e-03
  -2.0308428e-04   1.2607743e-02
  -3.0170142e-03  -3.3810851e-03
   6.9034169e-04  -2.1923807e-02
   2.6136313e-03   3.2839892e-03
   9.0513336e-03  -5.9572897e-03
   4.6775057e-02   4.8559255e-02
  -4.9780666e-03  -3.0731641e-02
   2.9910496e-03   1.1121805e-02
  -2.9842216e-03   3.2177974e-03
  -2.3653638e-03   7.3349120e-03
  -3.3215935e-03   2.4969332e-02
  -5.7236710e-03  -8.1931121e-03
   1.9637876e-03  -1.3055601e-02
   6.0948434e-03  -4.0539595e-03
   9.0733431e-03  -2.2893617e-03
   5.1962212e-02   5.3327468e-02
  -1.2678264e-02  -4.7294942e-02
   6.9381692e-03   1.2319999e-02
   2.4308383e-03  -1.5577586e-02
  -1.1356594e-02   3.5542194e-03
  -7.4409817e-03   4.2153444e-02
  -8.7478042e-03  -1.5700663e-02
   4.6015609e-03   3.3157734e-03
   1.0346466e-02  -1.3898686e-02
   9.3479592e-03   1.9643946e-03
   5.7763040e-02   5.7310520e-02
  -2.2337400e-02  -6.9204220e-02
   1.5103650e-02   1.2202974e-02
   9.7706284e-03  -4.7465762e-02
  -2.4258162e-02  -2.0482361e-03
  -1.2515467e-02   6.4727143e-02
  -1.1993938e-02  -2.6411752e-02
   8.9954111e-03   2.8522264e-02
   1.5420836e-02  -2.6523850e-02
