   1.2480604e-02  -1.3290442e-02
  -2.5602599e-02  -2.5558733e-02
   2.9032231e-02   4.0865857e-03
   6.7945475e-03   2.4171572e-02
   2.4547171e-02  -1.7459861e-02
   9.4238185e-03  -1.7306470e-02
   3.0388581e-02  -9.4910029e-02
   1.3027763e-02  -2.2678332e-03
   2.7996887e-02  -3.9129509e-02
   5.2885319e-03   3.4640623e-02
   9.3974398e-03  -1.1282947e-02
  -2.0352266e-02  -2.2299017e-02
   2.4789478e-02   4.4482761e-03
   5.0782646e-03   1.2623856e-02
   1.2413230e-02  -9.7975085e-03
   4.6492127e-03  -5.2886999e-03
   1.6811597e-02  -6.4909491e-02
   4.4570226e-03  -1.0243617e-03
   2.1709740e-02  -3.3708099e-02
   6.0234867e-04   1.3816870e-02
   6.5176420e-03  -9.5344444e-03
  -1.5492359e-02  -1.8728609e-02
   2.0723265e-02   3.9330268e-03
   5.8803339e-03   6.0350073e-03
   4.3132993e-03  -3.8184229e-03
   1.1229957e-03   1.8658346e-03
   6.5704978e-03  -3.9777782e-02
  -9.6500162e-04  -1.4357573e-04
   1.6496821e-02  -2.9137884e-02
  -2.0552805e-03   1.0021247e-04
   3.9979844e-03  -8.0467941e-03
  -1.1206949e-02  -1.5232288e-02
   1.7030272e-02   2.9409145e-03
   8.3576748e-03   3.3211269e-03
  -3.3376096e-04   3.0997502e-04
  -1.3447502e-03   5.2220095e-03
  -4.6605545e-04  -1.9996663e-02
  -3.7886860e-03   3.5318282e-04
   1.2318064e-02  -2.5496450e-02
  -3.1848842e-03  -7.6185912e-03
   1.9336826e-03  -6.8341980e-03
  -7.5972055e-03  -1.2077260e-02
   1.3849112e-02   1.7881663e-03
   1.1656515e-02   3.3781344e-03
  -2.2356982e-03   2.6067805e-03
  -2.9174928e-03   5.9087673e-03
  -4.6449506e-03  -5.5847908e-03
  -4.6208342e-03   5.0131653e-04
   9.0871803e-03  -2.2765941e-02
  -3.2642210e-03  -1.0631597e-02
   3.5986115e-04  -5.9095784e-03
  -4.6818478e-03  -9.4138117e-03
   1.1257476e-02   7.0084317e-04
   1.5016116e-02   5.1678105e-03
  -2.1431514e-03   3.2594092e-03
  -3.7380705e-03   5.0044759e-03
  -6.5109128e-03   3.9299131e-03
  -4.0738317e-03   3.7794484e-04
   6.6795634e-03  -2.0838461e-02
  -2.7169433e-03  -1.0287046e-02
  -7.4081406e-04  -5.2718299e-03
  -2.4076892e-03  -7.2872403e-03
   9.2755084e-03  -1.8354970e-04
   1.7852476e-02   7.7843769e-03
  -7.7323702e-04   2.5851050e-03
  -3.9385172e-03   3.4416946e-03
  -6.7383538e-03   9.4282313e-03
  -2.7187620e-03   8.5253823e-05
   4.9487232e-03  -1.9541365e-02
  -1.8897868e-03  -7.8712352e-03
  -1.4257808e-03  -4.8966272e-03
  -6.6854767e-04  -5.6577327e-03
   7.8741676e-03  -8.0702934e-04
   1.9809186e-02   1.0500154e-02
   1.2501662e-03   9.7999111e-04
  -3.6500413e-03   1.9400135e-03
  -6.0285080e-03   1.2028122e-02
  -1.0467455e-03  -2.6692648e-04
   3.7469671e-03  -1.8675350e-02
  -1.0403686e-03  -4.5095897e-03
  -1.7776995e-03  -4.7323310e-03
   6.7084296e-04  -4.4251332e-03
   6.9870495e-03  -1.1762661e-03
   2.0767541e-02   1.2793221e-02
   3.4334476e-03  -1.1351096e-03
  -3.0100290e-03   9.7159511e-04
  -4.9984959e-03   1.2869095e-02
   5.5770677e-04  -5.7700278e-04
   2.9448045e-03  -1.8054938e-02
  -3.3610292e-04  -1.0952260e-03
  -1.8894121e-03  -4.7015352e-03
   1.7502871e-03  -3.4562367e-03
   6.5239389e-03  -1.3440593e-03
   2.0817348e-02   1.4357500e-02
   5.4269298e-03  -3.3652913e-03
  -2.1641593e-03   7.6005999e-04
  -4.0918568e-03   1.2909248e-02
   1.8294425e-03  -7.6413889e-04
   2.4440142e-03  -1.7540859e-02
   1.3723520e-04   1.7494596e-03
  -1.8507647e-03  -4.7079603e-03
   2.6929560e-03  -2.6120107e-03
   6.3840438e-03  -1.3890123e-03
   2.0198211e-02   1.5093288e-02
   7.0182010e-03  -5.3829605e-03
  -1.2625289e-03   1.3086874e-03
  -3.5335063e-03   1.2785155e-02
   2.6219915e-03  -7.7689317e-04
   2.1813350e-03  -1.7056737e-02
   3.6028717e-04   3.6763581e-03
  -1.7387900e-03  -4.6474731e-03
   3.5904303e-03  -1.7718115e-03
   6.4672648e-03  -1.3954903e-03
   1.9225614e-02   1.5077555e-02
   8.1103231e-03  -6.9551622e-03
  -4.4978016e-04   2.4505262e-03
  -3.3388884e-03   1.2764432e-02
   2.8958346e-03  -5.9835323e-04
   2.1225806e-03  -1.6587375e-02
   3.6155850e-04   4.5835070e-03
  -1.6120912e-03  -4.4212459e-03
   4.4953786e-03  -8.5188840e-04
   6.6825966e-03  -1.4362166e-03
   1.8217007e-02   1.4516442e-02
   8.6919039e-03  -7.9549922e-03
   1.4937988e-04   3.9114641e-03
  -3.3717287e-03   1.2794027e-02
   2.6986310e-03  -2.4754823e-04
   2.2497424e-03  -1.6161119e-02
   1.9810315e-04   4.5636206e-03
  -1.5094387e-03  -3.9489023e-03
   5.4218169e-03   1.8390943e-04
   6.9533528e-03  -1.5594639e-03
   1.7430976e-02   1.3685877e-02
   8.8065416e-03  -8.3587179e-03
   4.4648836e-04   5.3773023e-03
  -3.4316743e-03   1.2621811e-02
   2.1401074e-03   2.2445744e-04
   2.5455294e-03  -1.5822870e-02
  -6.2400765e-05   3.8400346e-03
  -1.4518059e-03  -3.1797823e-03
   6.3516837e-03   1.3222477e-03
   7.2194348e-03  -1.7820841e-03
   1.7028547e-02   1.2868514e-02
   8.5274106e-03  -8.2315048e-03
   4.0357580e-04   6.5570326e-03
  -3.3456738e-03   1.1951394e-02
   1.3645924e-03   7.4454048e-04
   2.9803361e-03  -1.5606351e-02
  -3.5599320e-04   2.6999651e-03
  -1.4467427e-03  -2.1005739e-03
   7.2456617e-03   2.5069535e-03
   7.4372041e-03  -2.0886209e-03
   1.7060485e-02   1.2296061e-02
   7.9400776e-03  -7.7050650e-03
   4.1515160e-05   7.2353409e-03
  -3.0368107e-03   1.0583898e-02
   5.2500538e-04   1.2313855e-03
   3.5057471e-03  -1.5513817e-02
  -6.3177681e-04   1.4336487e-03
  -1.4937456e-03  -7.3817712e-04
   8.0558282e-03   3.6526195e-03
   7.5777458e-03  -2.4358630e-03
   1.7479011e-02   1.2105767e-02
   7.1339895e-03  -6.9507997e-03
  -5.5994005e-04   7.3074439e-03
  -2.5515379e-03   8.5069628e-03
  -2.3830064e-04   1.6096682e-03
   4.0565804e-03  -1.5508760e-02
  -8.5625540e-04   2.8655533e-04
  -1.5891549e-03   8.4229298e-04
   8.7377520e-03   4.6626670e-03
   7.6243338e-03  -2.7614438e-03
   1.8167102e-02   1.2319264e-02
   6.2005567e-03  -6.1513441e-03
  -1.2714984e-03   6.7913803e-03
  -2.0396819e-03   5.9100640e-03
  -8.1215699e-04   1.8217689e-03
   4.5606534e-03  -1.5522739e-02
  -1.0134491e-03  -5.7100811e-04
  -1.7294401e-03   2.5438871e-03
   9.2601573e-03   5.4486984e-03
   7.5699540e-03  -2.9950104e-03
   1.8975667e-02   1.2848778e-02
   5.2343868e-03  -5.4732005e-03
  -1.9332507e-03   5.8172632e-03
  -1.6971223e-03   3.1302840e-03
  -1.1182724e-03   1.8345276e-03
   4.9529080e-03  -1.5473021e-02
  -1.1020962e-03  -1.0555878e-03
  -1.9122874e-03   4.2477243e-03
   9.6111602e-03   5.9475171e-03
   7.4155322e-03  -3.0704430e-03
   1.9759903e-02   1.3527812e-02
   4.3342006e-03  -5.0434862e-03
  -2.3820411e-03   4.5973986e-03
  -1.6925244e-03   5.5364720e-04
  -1.1147695e-03   1.6393572e-03
   5.1891890e-03  -1.5284752e-02
  -1.1313465e-03  -1.1652720e-03
  -2.1354698e-03   5.8251861e-03
   9.8007830e-03   6.1327959e-03
   7.1688889e-03  -2.9371396e-03
   2.0408432e-02   1.4156699e-02
   3.6006719e-03  -4.9336817e-03
  -2.4836036e-03   3.3830228e-03
  -2.1032479e-03  -1.4926374e-03
  -7.9432317e-04   1.2475894e-03
   5.2551669e-03  -1.4910702e-02
  -1.1157554e-03  -9.6231910e-04
  -2.3940085e-03   7.1508952e-03
   9.8599204e-03   6.0198625e-03
   6.8441271e-03  -2.5686876e-03
   2.0860591e-02   1.4551374e-02
   3.1292361e-03  -5.1517185e-03
  -2.1634808e-03   2.4142271e-03
  -2.8814657e-03  -2.8229758e-03
  -1.8255063e-04   6.8569514e-04
   5.1674780e-03  -1.4343052e-02
  -1.0700751e-03  -5.5011107e-04
  -2.6766477e-03   8.1149958e-03
   9.8364210e-03   5.6635630e-03
   6.4610154e-03  -1.9679315e-03
   2.1109123e-02   1.4585450e-02
   2.9971532e-03  -5.6418983e-03
  -1.4302540e-03   1.8711862e-03
  -3.8613541e-03  -3.4280756e-03
   6.6162546e-04  -6.6927933e-06
   4.9665882e-03  -1.3614619e-02
  -1.0047276e-03  -4.9678007e-05
  -2.9632035e-03   8.6338338e-03
   9.7894531e-03   5.1502549e-03
   6.0437302e-03  -1.1678850e-03
   2.1188201e-02   1.4218482e-02
   3.2463573e-03  -6.2918165e-03
  -3.8517975e-04   1.8349165e-03
  -4.8051157e-03  -3.4548326e-03
   1.6447195e-03  -7.7626519e-04
   4.7034013e-03  -1.2790224e-02
  -9.2382599e-04   4.2228721e-04
  -3.2244785e-03   8.6586099e-03
   9.7836953e-03   4.5855698e-03
   5.6183649e-03  -2.2852520e-04
   2.1150153e-02   1.3505738e-02
   3.8660371e-03  -6.9459837e-03
   7.8569522e-04   2.2648535e-03
  -5.4734276e-03  -3.1416937e-03
   2.6394859e-03  -1.5553750e-03
   4.4235739e-03  -1.1951836e-02
  -8.2716414e-04   7.7340154e-04
  -3.4259992e-03   8.1816738e-03
   9.8849437e-03   4.0798460e-03
   5.2090655e-03   7.6952609e-04
   2.1037574e-02   1.2586895e-02
   4.7806778e-03  -7.4266125e-03
   1.8375975e-03   2.9989632e-03
  -5.6978368e-03  -2.7330222e-03
   3.4910111e-03  -2.2635626e-03
   4.1543229e-03  -1.1182825e-02
  -7.1512900e-04   9.5074062e-04
  -3.5358192e-03   7.2397262e-03
   1.0158265e-02   3.7334132e-03
   4.8329967e-03   1.7330083e-03
   2.0858809e-02   1.1654475e-02
   5.8490997e-03  -7.5611498e-03
   2.5086106e-03   3.7787818e-03
  -5.4311302e-03  -2.4018503e-03
   4.0303221e-03  -2.8123712e-03
   3.8978296e-03  -1.0556497e-02
  -5.9348719e-04   9.4660474e-04
  -3.5355156e-03   5.9129894e-03
   1.0668883e-02   3.6243394e-03
   4.4945138e-03   2.5645249e-03
   2.0573259e-02   1.0908462e-02
   6.8774885e-03  -7.2131420e-03
   2.5711485e-03   4.2976125e-03
  -4.7583786e-03  -2.2054645e-03
   4.0963794e-03  -3.1138179e-03
   3.6332306e-03  -1.0131935e-02
  -4.7565671e-04   7.9307224e-04
  -3.4325123e-03   4.3194914e-03
   1.1485197e-02   3.8008721e-03
   4.1794587e-03   3.1700804e-03
   2.0090475e-02   1.0507320e-02
   7.6468447e-03  -6.3120102e-03
   1.8853988e-03   4.2661820e-03
  -3.8645022e-03  -2.0839152e-03
   3.5657387e-03  -3.0925651e-03
   3.3264061e-03  -9.9570720e-03
  -3.8223085e-04   5.4848105e-04
  -3.2710466e-03   2.6036999e-03
   1.2682885e-02   4.2795299e-03
   3.8509155e-03   3.4641952e-03
   1.9285176e-02   1.0524667e-02
   7.9524754e-03  -4.8772923e-03
   4.4566650e-04   3.4868986e-03
  -2.9682923e-03  -1.8955787e-03
   2.3874966e-03  -2.7015975e-03
   2.9443901e-03  -1.0076399e-02
  -3.3827815e-04   2.8053638e-04
  -3.1391426e-03   9.1980741e-04
   1.4348556e-02   5.0487724e-03
   3.4476232e-03   3.3720559e-03
   1.8027638e-02   1.0919018e-02
   7.6501353e-03  -3.0328029e-03
  -1.5884922e-03   1.9245657e-03
  -2.2429013e-03  -1.4728954e-03
   6.1973498e-04  -1.9411084e-03
   2.4699249e-03  -1.0539518e-02
  -3.6900391e-04   5.0177251e-05
  -3.1694901e-03  -5.8890843e-04
   1.6581128e-02   6.0773773e-03
   2.8860490e-03   2.8287718e-03
   1.6226106e-02   1.1520981e-02
   6.7017367e-03  -1.0077624e-03
  -3.8824267e-03  -2.3980380e-04
  -1.7467322e-03  -6.7716240e-04
  -1.5374323e-03  -8.7985804e-04
   1.9116921e-03  -1.1406888e-02
  -4.9434569e-04  -1.0080684e-04
  -3.5329406e-03  -1.8125295e-03
   1.9489114e-02   7.3261934e-03
   2.0666729e-03   1.7763940e-03
   1.3875593e-02   1.2038818e-02
   5.2128753e-03   8.7631135e-04
  -5.9415360e-03  -2.5831912e-03
  -1.3857042e-03   5.6610921e-04
  -3.7188103e-03   3.2472629e-04
   1.3070397e-03  -1.2750419e-02
  -7.2187319e-04  -1.5903224e-04
  -4.4245825e-03  -2.6959743e-03
   2.3182415e-02   8.7617981e-03
   8.8444002e-04   1.5968768e-04
   1.1104769e-02   1.2081771e-02
   3.4547220e-03   2.2330172e-03
  -7.1513677e-03  -4.4508106e-03
  -9.1887155e-04   2.2614729e-03
  -5.3882536e-03   1.4141550e-03
   7.1618398e-04  -1.4648492e-02
  -1.0375758e-03  -1.4733038e-04
  -6.0436991e-03  -3.2564701e-03
   2.7758101e-02   1.0370302e-02
  -7.5728733e-04  -2.0783186e-03
   8.2112926e-03   1.1199469e-02
   1.8649068e-03   2.6508722e-03
  -6.8383923e-03  -5.0062328e-03
  -6.9633954e-06   4.3666451e-03
  -5.8540657e-03   2.0279869e-03
   2.0933560e-04  -1.7177069e-02
  -1.3956850e-03  -1.3098754e-04
  -8.5701748e-03  -3.5940079e-03
   3.3281218e-02   1.2169056e-02
  -2.9307065e-03  -4.9998391e-03
   5.6768365e-03   8.9336792e-03
   1.0256157e-03   1.7406934e-03
  -4.3440360e-03  -3.3187769e-03
   1.7090949e-03   6.8330408e-03
  -4.3053182e-03   1.7139279e-03
  -1.4965025e-04  -2.0400155e-02
  -1.7098032e-03  -2.2078084e-04
  -1.2140785e-02  -3.8922195e-03
   3.9762878e-02   1.4214054e-02
  -5.6674492e-03  -8.6738713e-03
   4.1556607e-03   4.8768122e-03
   1.6208769e-03  -8.1634503e-04
   8.9773619e-04   1.5208280e-03
   4.5219324e-03   9.6449439e-03
   1.3430737e-04  -5.3027564e-05
  -3.1833230e-04  -2.4363530e-02
  -1.8478651e-03  -5.7075547e-04
  -1.6828911e-02  -4.4083751e-03
   4.7138906e-02   1.6601524e-02
  -8.9446794e-03  -1.3174883e-02
   4.4337740e-03  -1.2681325e-03
   4.3774887e-03  -5.2263166e-03
   9.2905813e-03   1.0269497e-02
   8.5888567e-03   1.2837613e-02
   8.3400889e-03  -3.8433346e-03
  -2.8503997e-04  -2.9094683e-02
  -1.6322842e-03  -1.3704671e-03
  -2.2630629e-02  -5.4528779e-03
   5.5252792e-02   1.9462861e-02
  -1.2675757e-02  -1.8578027e-02
   7.3593041e-03  -9.6298223e-03
   9.9959584e-03  -1.1551041e-02
   2.1024410e-02   2.3401384e-02
   1.3899813e-02   1.6482756e-02
   2.1113407e-02  -1.0237903e-02
  -6.9943911e-05  -3.4609455e-02
  -8.4573168e-04  -2.8322921e-03
