   6.4009767e-03  -3.5296792e-02
   6.2623304e-04  -1.7938345e-02
  -4.9374499e-03  -1.7644374e-02
  -7.8810396e-04   5.2299704e-02
  -1.1635063e-02   4.9469490e-03
   5.1591540e-03  -4.3543250e-02
  -2.0583264e-02   5.1093147e-02
  -6.0719230e-02  -2.1582651e-01
   4.6943673e-02  -4.7668297e-02
   5.3688787e-02  -4.0651731e-03
   6.7345112e-03  -2.4117756e-02
   1.0280671e-03  -1.4607952e-02
  -4.1908473e-03  -1.3214850e-02
   1.0794465e-03   1.0587114e-02
  -3.7503532e-03   3.4899578e-03
   1.7240888e-03  -6.0511540e-03
  -1.3750087e-02   4.2076291e-02
  -5.1993119e-02  -1.6103317e-01
   2.8585096e-02  -3.4889384e-02
   4.5247910e-02   8.4250673e-03
   6.9987344e-03  -1.5183482e-02
   1.2773489e-03  -1.0704934e-02
  -3.1638992e-03  -1.0484162e-02
   1.5669274e-03  -1.0796033e-02
   1.2409019e-03   1.1736166e-03
   3.9367008e-05   1.3149143e-02
  -8.3193033e-03   3.3705789e-02
  -4.2950224e-02  -1.1328427e-01
   1.3925289e-02  -2.3543030e-02
   3.7878521e-02   1.6820379e-02
   7.1220668e-03  -8.0713370e-03
   1.4341759e-03  -7.0969846e-03
  -1.9766826e-03  -8.6805112e-03
   1.2244452e-03  -1.7452554e-02
   3.7917330e-03  -1.0605512e-03
  -4.2976486e-04   1.9153768e-02
  -4.2872155e-03   2.5945983e-02
  -3.4085412e-02  -7.3745703e-02
   2.9134033e-03  -1.3896910e-02
   3.1543007e-02   2.0919149e-02
   7.0629727e-03  -2.4447947e-03
   1.5221771e-03  -4.3015548e-03
  -7.2381460e-04  -7.2656964e-03
   5.2042342e-04  -1.4753421e-02
   4.4945662e-03  -2.5910829e-03
  -1.9297849e-04   1.6882103e-02
  -1.5802004e-03   1.8847957e-02
  -2.5886244e-02  -4.2831708e-02
  -4.6751111e-03  -6.0865382e-03
   2.6127774e-02   2.0978150e-02
   6.8095475e-03   1.9417745e-03
   1.5381420e-03  -2.5207542e-03
   5.2160745e-04  -5.9182509e-03
  -1.9024605e-04  -7.3564169e-03
   3.9851585e-03  -3.1440468e-03
   3.2750037e-04   1.0601675e-02
  -5.8934585e-05   1.2521630e-02
  -1.8766576e-02  -2.0234187e-02
  -9.2086950e-03  -1.2969062e-04
   2.1487653e-02   1.7673824e-02
   6.3749460e-03   5.2517971e-03
   1.4631265e-03  -1.7067510e-03
   1.7033667e-03  -4.4977301e-03
  -6.8012378e-04   1.1191062e-03
   2.8573140e-03  -2.7478858e-03
   8.3194793e-04   3.5915640e-03
   4.7085690e-04   7.0983889e-03
  -1.3013543e-02  -5.0486810e-03
  -1.1162281e-02   4.0538595e-03
   1.7486442e-02   1.1993633e-02
   5.7901020e-03   7.5858810e-03
   1.2733382e-03  -1.6445191e-03
   2.7775680e-03  -2.9978552e-03
  -8.4516701e-04   8.2380962e-03
   1.5986557e-03  -1.6450525e-03
   1.1507410e-03  -2.0146193e-03
   2.4160430e-04   2.6915630e-03
  -8.7567472e-03   4.0312386e-03
  -1.1075743e-02   6.6199874e-03
   1.4026193e-02   5.0803349e-03
   5.0953994e-03   9.0072819e-03
   9.4930839e-04  -2.0377906e-03
   3.7088090e-03  -1.4963471e-03
  -6.8548524e-04   1.2720892e-02
   5.5283230e-04  -1.8710163e-04
   1.2289823e-03  -5.2013940e-03
  -4.9726192e-04  -6.3701886e-04
  -5.9638384e-03   8.4910788e-03
  -9.5117358e-03   7.7776418e-03
   1.1060844e-02  -1.9393212e-03
   4.3328472e-03   9.5681496e-03
   4.8228304e-04  -2.5853797e-03
   4.4675175e-03  -1.0842073e-04
  -2.7571579e-04   1.4270140e-02
  -9.1274773e-05   1.2647113e-03
   1.0958309e-03  -5.8884248e-03
  -1.5021876e-03  -2.8977141e-03
  -4.4613637e-03   9.7854616e-03
  -7.0162741e-03   7.7678876e-03
   8.5935365e-03  -8.1087817e-03
   3.5399463e-03   9.3316800e-03
  -1.2266197e-04  -3.0384323e-03
   5.0286395e-03   1.0508012e-03
   2.6921652e-04   1.3302759e-02
  -2.8651553e-04   2.4167422e-03
   8.2742405e-04  -4.6448137e-03
  -2.5569997e-03  -4.1776155e-03
  -3.9751860e-03   9.1748466e-03
  -4.0848683e-03   6.8456739e-03
   6.6603923e-03  -1.2752126e-02
   2.7458954e-03   8.3866724e-03
  -8.4668189e-04  -3.2337194e-03
   5.3715723e-03   1.8920220e-03
   8.2728883e-04   1.0644912e-02
  -9.6689272e-05   3.0885467e-03
   5.1166756e-04  -2.3649809e-03
  -3.4901131e-03  -4.6295182e-03
  -4.1816371e-03   7.6285772e-03
  -1.1363082e-03   5.2647323e-03
   5.3061508e-03  -1.5525596e-02
   1.9702563e-03   6.8527567e-03
  -1.6597889e-03  -3.1029170e-03
   5.4810350e-03   2.3650460e-03
   1.2968072e-03   7.2456160e-03
   3.4412904e-04   3.2248368e-03
   2.2129527e-04   3.1075030e-05
  -4.1852114e-03  -4.4493764e-03
  -4.7594188e-03   5.7974733e-03
   1.5046347e-03   3.2656030e-03
   4.5582739e-03  -1.6408529e-02
   1.2237860e-03   4.8764105e-03
  -2.5250829e-03  -2.6620658e-03
   5.3485070e-03   2.4609173e-03
   1.6149451e-03   3.9516463e-03
   8.7427118e-04   2.8787515e-03
  -1.2235895e-06   1.8239087e-03
  -4.5842220e-03  -3.8484195e-03
  -5.4331130e-03   4.0448458e-03
   3.6151287e-03   1.0666470e-03
   4.4058888e-03  -1.5644327e-02
   5.1081753e-04   2.6197471e-03
  -3.4035620e-03  -1.9880649e-03
   4.9737985e-03   2.2058962e-03
   1.7660784e-03   1.3666003e-03
   1.3422950e-03   2.1773353e-03
  -1.4638588e-04   2.6195084e-03
  -4.6826648e-03  -3.0262870e-03
  -6.0017565e-03   2.5155285e-03
   5.0731659e-03  -1.1421901e-03
   4.7882417e-03  -1.3650260e-02
  -1.6766485e-04   2.4552247e-04
  -4.2586774e-03  -1.1897187e-03
   4.3662751e-03   1.6511453e-03
   1.7800024e-03  -2.0277663e-04
   1.6348786e-03   1.2825995e-03
  -2.3023895e-04   2.3701780e-03
  -4.5187104e-03  -2.1501330e-03
  -6.3497390e-03   1.2196425e-03
   5.8484523e-03  -3.2031240e-03
   5.5946037e-03  -1.0917527e-02
  -8.1112153e-04  -2.0977266e-03
  -5.0600289e-03  -3.8009553e-04
   3.5454047e-03   8.6158493e-04
   1.7212214e-03  -7.2595823e-04
   1.6922477e-03   3.5894729e-04
  -2.8124601e-04   1.3111113e-03
  -4.1582420e-03  -1.3424925e-03
  -6.4413873e-03   1.1063185e-04
   5.9869570e-03  -4.9921256e-03
   6.6745752e-03  -7.9206555e-03
  -1.4174158e-03  -4.2870553e-03
  -5.7857760e-03   3.4473637e-04
   2.5404406e-03  -9.3549805e-05
   1.6716044e-03  -3.7749582e-04
   1.5116359e-03  -4.4907345e-04
  -3.2602918e-04  -1.5508557e-04
  -3.6785450e-03  -6.7866178e-04
  -6.3036705e-03  -8.5691963e-04
   5.5911936e-03  -6.4187094e-03
   7.8554825e-03  -5.0500737e-03
  -1.9818235e-03  -6.2315051e-03
  -6.4235102e-03   9.1779300e-04
   1.3892046e-03  -1.1471729e-03
   1.7099584e-03   5.5563400e-04
   1.1407037e-03  -1.0284412e-03
  -3.7790770e-04  -1.5896612e-03
  -3.1530073e-03  -1.9257987e-04
  -6.0025953e-03  -1.6974821e-03
   4.7984630e-03  -7.4240978e-03
   8.9628063e-03  -2.5756564e-03
  -2.4969064e-03  -7.8736948e-03
  -6.9695870e-03   1.3038973e-03
   1.3600238e-04  -2.2375681e-03
   1.8927278e-03   1.7613609e-03
   6.6306760e-04  -1.2998012e-03
  -4.3140227e-04  -2.6308898e-03
  -2.6387063e-03   1.1156006e-04
  -5.6184271e-03  -2.3931679e-03
   3.7592821e-03  -7.9779814e-03
   9.8401146e-03  -6.4263245e-04
  -2.9530520e-03  -9.1873414e-03
  -7.4272102e-03   1.4951358e-03
  -1.1711953e-03  -3.3090498e-03
   2.2394873e-03   2.9666923e-03
   1.7933107e-04  -1.2156677e-03
  -4.6384386e-04  -3.0666880e-03
  -2.1681618e-03   2.4608079e-04
  -5.2238834e-03  -2.9128473e-03
   2.6180519e-03  -8.0743407e-03
   1.0365858e-02   7.0607728e-04
  -3.3394484e-03  -1.0172011e-02
  -7.8037631e-03   1.5023775e-03
  -2.4840703e-03  -4.3113085e-03
   2.7258781e-03   3.9716116e-03
  -2.1282443e-04  -7.6071275e-04
  -4.4309221e-04  -2.8587083e-03
  -1.7458688e-03   2.2918929e-04
  -4.8682286e-03  -3.2377546e-03
   1.4976256e-03  -7.7269145e-03
   1.0465271e-02   1.4932581e-03
  -3.6452699e-03  -1.0846653e-02
  -8.1079649e-03   1.3462751e-03
  -3.7575046e-03  -5.1986366e-03
   3.2853465e-03   4.6551094e-03
  -4.3669687e-04   4.3357549e-05
  -3.3916109e-04  -2.1218001e-03
  -1.3495837e-03   7.9809500e-05
  -4.5687808e-03  -3.3787061e-03
   4.8890825e-04  -6.9649664e-03
   1.0116512e-02   1.7709839e-03
  -3.8609172e-03  -1.1243304e-02
  -8.3473976e-03   1.0503509e-03
  -4.9530425e-03  -5.9299528e-03
   3.8197719e-03   4.9621251e-03
  -4.5077023e-04   1.1293632e-03
  -1.3681374e-04  -1.0715560e-03
  -9.3586216e-04  -1.8154582e-04
  -4.3100191e-03  -3.3749352e-03
  -3.5396111e-04  -5.8300248e-03
   9.3510286e-03   1.5962757e-03
  -3.9792133e-03  -1.1402041e-02
  -8.5268557e-03   6.3750874e-04
  -6.0419134e-03  -6.4701226e-03
   4.2177500e-03   4.8830064e-03
  -2.5772433e-04   2.3762743e-03
   1.5399956e-04   4.2591466e-05
  -4.4906716e-04  -5.2774714e-04
  -4.0495378e-03  -3.2731414e-03
  -1.0128462e-03  -4.3742241e-03
   8.2487301e-03   1.0242909e-03
  -3.9964922e-03  -1.1367725e-02
  -8.6478252e-03   1.2992679e-04
  -7.0072986e-03  -6.7923209e-03
   4.3777280e-03   4.4364552e-03
   9.2946076e-05   3.6059100e-03
   4.9258977e-04   1.0011565e-03
   1.6714638e-04  -9.1947800e-04
  -3.7295104e-03  -3.0944816e-03
  -1.4997755e-03  -2.6607219e-03
   6.9289626e-03   1.1657180e-04
  -3.9135323e-03  -1.1188422e-02
  -8.7092114e-03  -4.4889898e-04
  -7.8455642e-03  -6.8806619e-03
   4.2318959e-03   3.6628827e-03
   5.0970235e-04   4.5906751e-03
   8.0903106e-04   1.6608089e-03
   9.5702606e-04  -1.3031289e-03
  -3.2919961e-03  -2.8037264e-03
  -1.8470013e-03  -7.6629973e-04
   5.5383753e-03  -1.0446442e-03
  -3.7363438e-03  -1.0914605e-02
  -8.7092320e-03  -1.0717561e-03
  -8.5661952e-03  -6.7323019e-03
   3.7664003e-03   2.6284313e-03
   8.7164369e-04   5.0776928e-03
   1.0140994e-03   1.9741861e-03
   1.9398510e-03  -1.6150956e-03
  -2.6962898e-03  -2.2964583e-03
  -2.0942842e-03   1.2142138e-03
   4.2367233e-03  -2.3480811e-03
  -3.4767844e-03  -1.0597937e-02
  -8.6482234e-03  -1.7066008e-03
  -9.1903498e-03  -6.3582115e-03
   3.0338130e-03   1.4341646e-03
   1.0489581e-03   4.8314871e-03
   1.0177991e-03   1.9819123e-03
   3.0982418e-03  -1.7932165e-03
  -1.9365534e-03  -1.4163689e-03
  -2.2749632e-03   3.1625392e-03
   3.1815012e-03  -3.6616699e-03
  -3.1528417e-03  -1.0288771e-02
  -8.5319198e-03  -2.3177262e-03
  -9.7482642e-03  -5.7818065e-03
   2.1540592e-03   2.2407194e-04
   9.2984365e-04   3.6931580e-03
   7.5463193e-04   1.7839985e-03
   4.3688333e-03  -1.7935177e-03
  -1.0581695e-03  -6.4081551e-06
  -2.4024494e-03   4.9318837e-03
   2.5120666e-03  -4.8625576e-03
  -2.7884258e-03  -1.0031740e-02
  -8.3745422e-03  -2.8695237e-03
  -1.0275793e-02  -5.0355822e-03
   1.3013329e-03  -8.1370343e-04
   4.5165155e-04   1.6484552e-03
   2.1178036e-04   1.5039181e-03
   5.6364346e-03  -1.6083197e-03
  -1.7146022e-04   2.0128487e-03
  -2.4586556e-03   6.3436898e-03
   2.3338047e-03  -5.8864956e-03
  -2.4126520e-03  -9.8589232e-03
  -8.2008790e-03  -3.3324102e-03
  -1.0810418e-02  -4.1567342e-03
   6.7777897e-04  -1.4587438e-03
  -3.6665338e-04  -1.1083042e-03
  -5.4427972e-04   1.2582176e-03
   6.7327727e-03  -1.2807869e-03
   5.3881887e-04   4.5530322e-03
  -2.3855319e-03   7.1874111e-03
   2.7032613e-03  -6.7873760e-03
  -2.0584971e-03  -9.7811792e-03
  -8.0466123e-03  -3.6896219e-03
  -1.1387251e-02  -3.1828634e-03
   4.7830737e-04  -1.4885439e-03
  -1.3952063e-03  -4.1275797e-03
  -1.3477759e-03   1.1421854e-03
   7.4408165e-03  -9.1138087e-04
   8.1066678e-04   7.2756481e-03
  -2.0804710e-03   7.2241882e-03
   3.6161028e-03  -7.7936699e-03
  -1.7606720e-03  -9.7791882e-03
  -7.9564816e-03  -3.9427633e-03
  -1.2035624e-02  -2.1487645e-03
   8.5283293e-04  -7.2605882e-04
  -2.3731707e-03  -6.6843970e-03
  -1.9256608e-03   1.2390151e-03
   7.5052884e-03  -6.5297996e-04
   3.1177792e-04   9.5373916e-03
  -1.3959584e-03   6.1949577e-03
   5.0006483e-03  -9.3474506e-03
  -1.5527730e-03  -9.7958595e-03
  -7.9803149e-03  -4.1138585e-03
  -1.2776710e-02  -1.0854244e-03
   1.8725618e-03   9.0428160e-04
  -2.9032714e-03  -7.7919620e-03
  -1.9052253e-03   1.6514771e-03
   6.6492045e-03  -6.9334672e-04
  -1.3413819e-03   1.0380422e-02
  -1.4342971e-04   3.8330003e-03
   6.7196899e-03  -1.2112744e-02
  -1.4638787e-03  -9.7320395e-03
  -8.1673111e-03  -4.2425089e-03
  -1.3622389e-02  -2.1935685e-05
   3.5068782e-03   3.3248057e-03
  -2.4646159e-03  -6.2537170e-03
  -8.3838823e-04   2.5475319e-03
   4.5952904e-03  -1.2262664e-03
  -4.5519101e-03   8.5788678e-03
   1.8991035e-03  -1.1970488e-04
   8.5822448e-03  -1.6943677e-02
  -1.5148990e-03  -9.4473863e-03
  -8.5593004e-03  -4.3779535e-03
  -1.4575496e-02   1.0098072e-03
   5.6165372e-03   6.2696908e-03
  -4.4563404e-04  -7.5308186e-04
   1.7584044e-03   4.2078193e-03
   1.0901212e-03  -2.4157208e-03
  -9.7003217e-03   2.7426813e-03
   4.9764157e-03  -5.8934272e-03
   1.0365138e-02  -2.4809940e-02
  -1.7151783e-03  -8.7675928e-03
  -9.1839768e-03  -4.5670177e-03
  -1.5631264e-02   1.9682645e-03
   7.9667430e-03   9.2771429e-03
   3.8037585e-03   1.0024452e-02
   6.3520126e-03   7.0613360e-03
  -4.0719491e-03  -4.3601630e-03
  -1.7096649e-02  -8.5325109e-03
   9.3434275e-03  -1.3670407e-02
   1.1842259e-02  -3.6686166e-02
  -2.0599339e-03  -7.4982645e-03
  -1.0049249e-02  -4.8398744e-03
  -1.6779509e-02   2.7943365e-03
   1.0260258e-02   1.1714870e-02
   1.0905144e-02   2.7245957e-02
   1.3333490e-02   1.1696035e-02
  -1.1028319e-02  -7.0653349e-03
  -2.6933535e-02  -2.6492477e-02
   1.5251733e-02  -2.3565024e-02
   1.2817399e-02  -5.3420768e-02
