  -4.0982163e-02  -2.1564089e-03
   3.2368141e-02  -1.9382691e-01
   9.0236732e-02   1.0851715e-01
   3.5606085e-02   1.0097434e-01
  -1.0463664e-02   7.8620780e-03
   3.6737546e-02   8.5495681e-02
  -1.8845733e-01   2.1880778e-01
  -2.7300096e-02   6.0649100e-02
  -1.9297191e-02   9.3260936e-02
  -1.0296777e-02   3.5052852e-02
  -2.8773804e-02   1.7824076e-03
   1.8292089e-02  -1.0695195e-01
   2.9711533e-02   4.6585393e-02
   3.5053696e-03   2.9408963e-02
   1.2152529e-03   6.8601689e-03
   3.3238756e-03   1.0885244e-02
  -1.2452717e-01   1.4296578e-01
  -1.9219882e-02   3.3041014e-02
  -7.8338702e-03   4.9692036e-02
  -3.9315810e-03   7.9205421e-03
  -1.8495971e-02   4.1092743e-03
   8.6530634e-03  -4.0965249e-02
  -7.6498448e-03   6.1379849e-03
  -1.5157349e-02  -6.6479804e-03
   4.3204446e-03   1.6232273e-03
  -1.1866822e-02  -2.6410559e-02
  -7.3041691e-02   8.0989092e-02
  -1.2216799e-02   1.3365489e-02
   4.9529956e-04   1.8120094e-02
   6.9364431e-04  -1.0189429e-02
  -1.0257382e-02   4.9577697e-03
   2.5788463e-03   4.3513422e-03
  -2.6108024e-02  -1.6488689e-02
  -2.3146966e-02  -1.7302016e-02
   2.6058808e-03  -4.1736841e-03
  -1.4878421e-02  -3.7507175e-02
  -3.4170880e-02   3.4303019e-02
  -6.6269973e-03   4.6425768e-04
   5.4416606e-03  -1.6591585e-03
   3.6216997e-03  -2.0673199e-02
  -3.9825962e-03   4.5945236e-03
  -7.8787549e-04   3.0802497e-02
  -3.0394423e-02  -2.5389849e-02
  -2.3378749e-02  -1.2329609e-02
  -9.2938782e-04  -8.1844469e-03
  -1.1042913e-02  -3.2581540e-02
  -7.2403975e-03   2.6901106e-03
  -2.5696064e-03  -6.9892024e-03
   7.2043155e-03  -1.0970402e-02
   5.0863570e-03  -2.5067487e-02
   5.3927481e-04   3.3622903e-03
  -2.2311622e-03   4.1413946e-02
  -2.5246909e-02  -2.4668015e-02
  -1.8688884e-02  -1.4222255e-04
  -4.1923611e-03  -9.3910238e-03
  -4.5849756e-03  -2.0026542e-02
   9.2485809e-03  -1.5655692e-02
   1.6231278e-05  -1.0370366e-02
   6.4175802e-03  -1.2078277e-02
   5.4415476e-03  -2.4948627e-02
   3.6026196e-03   1.6176882e-03
  -2.4200421e-03   3.9971001e-02
  -1.4986970e-02  -1.8086604e-02
  -1.1628743e-02   1.2913458e-02
  -6.0141852e-03  -7.8968709e-03
   1.5768508e-03  -6.0026928e-03
   1.7426955e-02  -2.3728785e-02
   1.3214445e-03  -1.0981856e-02
   4.0333500e-03  -7.8108840e-03
   5.0885560e-03  -2.1828393e-02
   5.5355059e-03  -3.2090597e-04
  -1.8862000e-03   3.0527650e-02
  -3.1913593e-03  -8.8234433e-03
  -4.3011693e-03   2.2841004e-02
  -6.0458656e-03  -4.5588221e-03
   5.8208153e-03   5.6220304e-03
   1.9732406e-02  -2.5061731e-02
   1.6124638e-03  -9.9467475e-03
   1.1254918e-03  -1.0641759e-03
   4.4116458e-03  -1.7063919e-02
   6.6569074e-03  -2.2042797e-03
  -1.0207884e-03   1.6955068e-02
   7.5064375e-03   6.7047293e-04
   1.7476987e-03   2.7873457e-02
  -4.5603462e-03  -5.5303112e-04
   7.6326993e-03   1.3017359e-02
   1.8528615e-02  -2.2998548e-02
   1.1801324e-03  -8.1345648e-03
  -1.3335864e-03   5.6936126e-03
   3.7298081e-03  -1.1793039e-02
   7.2447391e-03  -3.8580565e-03
  -8.7290084e-05   2.5835034e-03
   1.5472867e-02   8.7123930e-03
   5.5736784e-03   2.8037720e-02
  -2.2030498e-03   3.0159193e-03
   7.2961924e-03   1.5932889e-02
   1.5761535e-02  -2.0090658e-02
   2.9860421e-04  -6.1330097e-03
  -2.6659341e-03   1.0791524e-02
   3.2682604e-03  -6.8975361e-03
   7.5167671e-03  -5.1673771e-03
   7.5429209e-04  -1.0032855e-02
   2.0000949e-02   1.4344103e-02
   6.8165156e-03   2.4540037e-02
   2.6136847e-04   5.3902305e-03
   5.5385637e-03   1.5151750e-02
   1.2734269e-02  -1.7772998e-02
  -8.0201384e-04  -4.2670778e-03
  -2.6009734e-03   1.3509098e-02
   3.1492426e-03  -2.9921055e-03
   7.6243934e-03  -6.0513569e-03
   1.4172241e-03  -1.9219759e-02
   2.1138237e-02   1.7231547e-02
   5.6249495e-03   1.9116707e-02
   2.1620707e-03   6.2855915e-03
   3.2050300e-03   1.1950192e-02
   1.0048491e-02  -1.6381052e-02
  -1.9486592e-03  -2.6548637e-03
  -1.2814792e-03   1.3989974e-02
   3.3984473e-03  -4.3486276e-04
   7.6572557e-03  -6.4408839e-03
   1.8570734e-03  -2.4166878e-02
   1.9459245e-02   1.7535981e-02
   2.5365278e-03   1.3485568e-02
   3.0638459e-03   5.8621298e-03
   1.0159391e-03   7.6551484e-03
   7.7140330e-03  -1.5460488e-02
  -3.0260450e-03  -1.2809225e-03
   8.3395703e-04   1.2963590e-02
   3.9616821e-03   6.4618676e-04
   7.6550346e-03  -6.2683240e-03
   2.0448685e-03  -2.4820019e-02
   1.5827947e-02   1.5761798e-02
  -1.6718990e-03   8.9750279e-03
   2.8254376e-03   4.5683576e-03
  -5.6831875e-04   3.3700565e-03
   5.3829359e-03  -1.4240294e-02
  -3.9689218e-03  -6.5891877e-05
   3.1398589e-03   1.1372631e-02
   4.7262873e-03   3.1566762e-04
   7.6223555e-03  -5.4726918e-03
   1.9485134e-03  -2.1714148e-02
   1.1188954e-02   1.2598554e-02
  -6.1438434e-03   6.3382856e-03
   1.5814737e-03   2.9260266e-03
  -1.3788757e-03  -1.3701991e-04
   2.6329776e-03  -1.2105913e-02
  -4.7501029e-03   1.0832658e-03
   5.0734336e-03   1.0020888e-02
   5.5431312e-03  -1.2131104e-03
   7.5433971e-03  -4.0214939e-03
   1.5252254e-03  -1.5778217e-02
   6.4121802e-03   8.7882687e-03
  -1.0092345e-02   5.7368232e-03
  -3.3014565e-04   1.3407564e-03
  -1.4916963e-03  -2.4429455e-03
  -7.8263752e-04  -8.9243555e-03
  -5.3678555e-03   2.2481760e-03
   6.2710326e-03   9.3384043e-03
   6.2470997e-03  -3.6236822e-03
   7.3942690e-03  -1.9437483e-03
   7.2577264e-04  -8.1413242e-03
   2.1996218e-03   5.0264148e-03
  -1.2918624e-02   6.8600977e-03
  -2.4666512e-03   1.4331973e-06
  -1.1372989e-03  -3.4252249e-03
  -4.7867182e-03  -5.1323209e-03
  -5.8350486e-03   3.4956004e-03
   6.6505950e-03   9.3158977e-03
   6.6760709e-03  -6.5408976e-03
   7.1526422e-03   6.3825442e-04
  -4.9102996e-04   3.5616499e-05
  -9.5205787e-04   1.8884029e-03
  -1.4283983e-02   9.1138159e-03
  -4.3777704e-03  -1.1126642e-03
  -5.9994747e-04  -3.1898014e-03
  -8.9639382e-03  -1.5819332e-03
  -6.1710494e-03   4.8850604e-03
   6.4027714e-03   9.6030819e-03
   6.6894696e-03  -9.5727788e-03
   6.8049409e-03   3.4906199e-03
  -2.1372382e-03   7.6909564e-03
  -2.7496604e-03  -2.1556186e-04
  -1.4126564e-02   1.1801282e-02
  -5.6838878e-03  -2.1400917e-03
  -1.3097388e-04  -1.9854343e-03
  -1.2673352e-02   7.7838519e-04
  -6.3960981e-03   6.4727593e-03
   5.9001861e-03   9.7135521e-03
   6.1871602e-03  -1.2346955e-02
   6.3514414e-03   6.2734393e-03
  -4.1732690e-03   1.3956419e-02
  -3.0822162e-03  -1.0554519e-03
  -1.2625723e-02   1.4256677e-02
  -6.1278179e-03  -3.2098420e-03
   1.0980053e-04  -1.2614742e-04
  -1.5243356e-02   1.2567758e-03
  -6.5270583e-03   8.3004705e-03
   5.5569252e-03   9.2480830e-03
   5.1280417e-03  -1.4540772e-02
   5.8092624e-03   8.5740222e-03
  -6.4897433e-03   1.8218410e-02
  -1.9970403e-03  -5.8036245e-04
  -1.0128016e-02   1.5920329e-02
  -5.6017730e-03  -4.3242963e-03
   8.0244657e-05   2.0549822e-03
  -1.6182421e-02  -3.2680107e-04
  -6.5733562e-03   1.0370142e-02
   5.6833268e-03   8.0516377e-03
   3.5460618e-03  -1.5908751e-02
   5.2128541e-03   9.9621652e-03
  -8.8991460e-03   2.0154073e-02
   3.1761152e-04   1.0930855e-03
  -7.0568695e-03   1.6360941e-02
  -4.1549120e-03  -5.2907854e-03
  -1.4783345e-04   4.2184945e-03
  -1.5336226e-02  -3.5649234e-03
  -6.5325369e-03   1.2613507e-02
   6.3812673e-03   6.2559247e-03
   1.5600520e-03  -1.6307545e-02
   4.6114252e-03   1.0055131e-02
  -1.1141251e-02   1.9746660e-02
   3.5429315e-03   3.6974657e-03
  -3.8307304e-03   1.5281761e-02
  -1.9859877e-03  -5.7370399e-03
  -4.1650875e-04   6.0162173e-03
  -1.2939713e-02  -7.5794467e-03
  -6.3859100e-03   1.4865879e-02
   7.5120978e-03   4.2075677e-03
  -6.2681010e-04  -1.5710405e-02
   4.0630178e-03   8.5790719e-03
  -1.2903758e-02   1.7275227e-02
   7.2401535e-03   6.8318829e-03
  -8.0996429e-04   1.2554859e-02
   5.7776282e-04  -5.2220383e-03
  -5.2697108e-04   7.1090479e-03
  -9.5460062e-03  -1.1280716e-02
  -6.0958709e-03   1.6854593e-02
   8.7469052e-03   2.3211397e-03
  -2.7414860e-03  -1.4205002e-02
   3.6257632e-03   5.4192508e-03
  -1.3857030e-02   1.3273267e-02
   1.0872064e-02   9.9888763e-03
   1.7185555e-03   8.2884957e-03
   3.1176272e-03  -3.4140735e-03
  -2.9523197e-04   7.2242451e-03
  -5.8531834e-03  -1.3677926e-02
  -5.6071806e-03   1.8214272e-02
   9.6835926e-03   9.1826689e-04
  -4.4710743e-03  -1.1976807e-02
   3.3479770e-03   6.5284329e-04
  -1.3699720e-02   8.4565617e-03
   1.3845052e-02   1.2600908e-02
   3.5249092e-03   2.8968561e-03
   5.1788140e-03  -2.7748218e-04
   3.8979647e-04   6.2302945e-03
  -2.4835487e-03  -1.4139917e-02
  -4.8542475e-03   1.8534693e-02
   9.9943008e-03   1.1584505e-04
  -5.5069581e-03  -9.2837260e-03
   3.2596567e-03  -5.4398639e-03
  -1.2210769e-02   3.6245159e-03
   1.5576151e-02   1.4108105e-02
   4.4062950e-03  -2.8629541e-03
   6.3429223e-03   3.7950479e-03
   1.5160463e-03   4.2054388e-03
   2.1165317e-04  -1.2530437e-02
  -3.7751528e-03   1.7436655e-02
   9.5559572e-03  -1.9315273e-04
  -5.5985295e-03  -6.4261817e-03
   3.3681837e-03  -1.2383350e-02
  -9.3030353e-03  -4.5547643e-04
   1.5582081e-02   1.4033692e-02
   4.1692759e-03  -7.9257887e-03
   6.3096927e-03   7.9533785e-03
   2.9182672e-03   1.4817109e-03
   2.2523582e-03  -9.1905276e-03
  -2.3310985e-03   1.4663579e-02
   8.5198662e-03  -2.5936695e-04
  -4.6090460e-03  -3.7154794e-03
   3.6603594e-03  -1.9527860e-02
  -5.0741410e-03  -3.1632680e-03
   1.3579732e-02   1.2055066e-02
   2.6469147e-03  -1.1060629e-02
   4.9738198e-03   1.0993614e-02
   4.2806388e-03  -1.3591544e-03
   3.9894938e-03  -4.7968822e-03
  -5.2769936e-04   1.0172540e-02
   7.2925784e-03  -3.3043742e-04
  -2.5645228e-03  -1.4423769e-03
   4.1113333e-03  -2.6074830e-02
   1.4951920e-04  -4.1187025e-03
   9.5819431e-03   8.0800216e-03
  -2.3827853e-04  -1.1124522e-02
   2.4792658e-03   1.1598469e-02
   5.1807242e-03  -3.5518260e-03
   5.9192138e-03  -1.6774926e-04
   1.5671535e-03   4.2078112e-03
   6.4255765e-03  -4.9786581e-04
   3.1328769e-04   1.5342577e-04
   4.6990158e-03  -3.1100047e-02
   5.7797978e-03  -3.2364375e-03
   3.9706119e-03   2.3367393e-03
  -4.3725547e-03  -7.3908330e-03
  -7.6488168e-04   8.6895750e-03
   5.1770433e-03  -4.2914897e-03
   8.3908684e-03   3.9033467e-03
   3.8144762e-03  -2.6555530e-03
   6.4388310e-03  -5.9634806e-04
   3.5967584e-03   9.1085321e-04
   5.4208512e-03  -3.3572017e-02
   1.0949453e-02  -7.3656589e-04
  -2.4684311e-03  -4.5313598e-03
  -9.3358676e-03   1.1268164e-04
  -4.1162539e-03   1.8368837e-03
   3.9350214e-03  -2.9698400e-03
   1.1284564e-02   6.7322834e-03
   6.0086072e-03  -9.5029577e-03
   7.6251782e-03  -1.8881032e-04
   6.6684408e-03   7.6850763e-04
   6.3089061e-03  -3.2365009e-02
   1.4515528e-02   2.8882293e-03
  -8.5586583e-03  -1.1393191e-02
  -1.4312703e-02   1.0329549e-02
  -6.7776245e-03  -8.3606676e-03
   1.3785999e-03   5.2405693e-04
   1.3751401e-02   7.7350779e-03
   7.8959285e-03  -1.5105777e-02
   9.8920515e-03   1.3623020e-03
   8.7621433e-03  -2.2219133e-04
   7.4393992e-03  -2.6268677e-02
   1.5088718e-02   6.9438940e-03
  -1.2796283e-02  -1.6609949e-02
  -1.8071375e-02   2.1025559e-02
  -7.9098402e-03  -2.0019774e-02
  -2.1515620e-03   5.5209243e-03
   1.4100827e-02   6.3497454e-03
   9.2048297e-03  -1.7977179e-02
   1.2690634e-02   4.7631450e-03
   9.0233660e-03  -1.8914373e-03
   8.9338873e-03  -1.3997456e-02
   1.1093525e-02   1.0636975e-02
  -1.3457579e-02  -1.8081167e-02
  -1.9044856e-02   2.8804321e-02
  -6.7594521e-03  -2.9911423e-02
  -5.7565072e-03   1.0397416e-02
   9.8854572e-03   1.9392244e-03
   9.6798787e-03  -1.6452305e-02
   1.5060554e-02   1.0637949e-02
   6.5797884e-03  -3.9534236e-03
   1.0950982e-02   5.7957648e-03
   8.6232905e-04   1.3193569e-02
  -8.7359656e-03  -1.3368965e-02
  -1.5524537e-02   2.9310219e-02
  -2.7787694e-03  -3.3612327e-02
  -7.8785248e-03   1.2556599e-02
  -1.8171258e-03  -6.2679115e-03
   9.1107073e-03  -8.7881759e-03
   1.5786593e-02   1.9405593e-02
   6.1055899e-04  -6.0170786e-03
   1.3669276e-02   3.4496363e-02
  -1.7237018e-02   1.3974870e-02
   3.1106516e-03   8.8289793e-05
  -5.9488062e-03   1.7628701e-02
   4.2814788e-03  -2.5857451e-02
  -6.2654323e-03   8.5977901e-03
  -2.3979450e-02  -1.9156327e-02
   7.3461190e-03   6.7216553e-03
   1.3631840e-02   3.1217661e-02
  -9.5965420e-03  -7.6057004e-03
   1.7263655e-02   7.3491386e-02
  -4.4645930e-02   1.2564963e-02
   2.3623117e-02   2.4680336e-02
   1.0761269e-02  -1.1142303e-02
   1.4320880e-02  -1.0716015e-03
   1.9804314e-03  -5.2906572e-03
  -5.9150189e-02  -3.7610919e-02
   4.2866391e-03   3.1626174e-02
   7.5889732e-03   4.5969284e-02
  -2.4608301e-02  -8.1885338e-03
   2.1878068e-02   1.2411551e-01
  -8.2444642e-02   8.8102839e-03
   5.4032587e-02   6.2273271e-02
   3.4887929e-02  -6.1237558e-02
   2.6886089e-02   4.5969353e-02
   2.0255589e-02  -3.2732967e-02
  -1.0904041e-01  -6.2339554e-02
  -1.4633017e-04   6.7199784e-02
  -2.9150576e-03   6.3367135e-02
  -4.4833449e-02  -7.2285284e-03
