  -3.3024529e-02  -2.1604648e-02  -8.9765373e-02   4.8832269e-02  -2.7668571e-02   1.6723842e-01  -3.3570366e-01  -2.2881603e-03   3.6781735e-02  -7.5112164e-01   1.8376217e-01  -5.8371199e-01   8.4720146e-01   1.6946081e-01   1.4598567e+00  -3.0749628e-01  -1.4439973e-02   6.4687821e-01  -4.1570755e-01   3.0967325e-01   3.9792531e-01   5.9619119e-01   8.9290160e-01   1.1152293e+00   4.5241999e-01
  -1.8059789e-02  -1.5276390e-02   5.1814391e-02   3.2523820e-02  -6.0383369e-02   4.4321259e-01   7.6184459e-03   1.3078477e-02  -2.0471754e-01  -3.1964608e-01   7.2198782e-01  -6.5678826e-01   2.3168752e-01  -6.8257782e-02  -1.1228365e+00   6.3578634e-01   2.9754186e-01  -1.2204646e-01  -3.8392412e-01   9.9411962e-02   9.4870644e-01  -1.3560000e+00  -3.9822836e-01   4.1520434e-01  -1.2037194e-01
  -2.1583520e-02  -7.7581483e-02  -7.0746696e-02  -1.5566210e-01   2.3661040e-01  -7.3044483e-02  -2.5403441e-01   1.7988518e-01   1.9787152e-01   2.2490367e-01   1.6854138e-01   1.5580296e-01  -3.6772471e-01   3.7040814e-01  -2.7257526e-01  -2.8112419e-01   1.5896828e-02   2.9525302e-01  -3.3352484e-01   5.4878867e-01   2.6783395e-01   6.6692862e-02   1.7017019e+00  -1.1993900e-01  -8.6890012e-01
  -2.1745697e-03  -4.7980678e-02  -2.4104008e-02  -7.5106266e-02  -6.5380443e-02   6.6200428e-02   9.2712294e-02  -6.9984281e-02   1.2516125e-01  -7.5155877e-02  -3.1627387e-01   3.4516812e-01   4.6605224e-02   3.7880736e-01  -1.9755007e-01  -1.8717129e-01   6.4843474e-01  -8.1831667e-02   4.0858810e-02  -2.5074755e-01   4.0758216e-01   3.0501232e-02   4.0306263e-01   5.5715064e-01  -8.0520094e-01
   3.4857726e-02   9.2513653e-03   7.1263122e-02  -1.5152827e-03   3.1887873e-02  -4.0761826e-02  -4.7704720e-02  -7.7568720e-02  -4.1891594e-02   5.6052779e-02   9.1595990e-02  -1.8739946e-01   3.0584586e-01  -3.9053761e-01   2.3771938e-01   6.4431193e-01   1.2852351e-01   1.5443251e-01   8.4335676e-01  -1.9648245e-01  -8.4680725e-01   5.6020942e-01   4.5377072e-01   5.4243177e-01   2.1604637e-01
   6.8576550e-03   6.3456509e-02   4.5152024e-04   1.5004402e-01  -1.2837272e-01  -9.9229734e-02  -2.4643416e-02   2.7498518e-01  -8.8595058e-03  -1.9201143e-01   1.4280030e-01   1.0452918e-01   1.0290384e-01   2.2587202e-01  -5.6642601e-01  -6.6159902e-03  -6.2187243e-01  -2.6925551e-01  -1.1160142e-01  -8.9359033e-02  -5.6352053e-01  -1.9322379e-01   9.0469101e-01  -4.5804861e-01  -4.1800369e-01
   1.0357408e-02  -2.8921423e-02  -9.5876186e-02  -2.2379375e-01  -4.0157358e-01   1.0469447e-01  -2.3763399e-02  -8.2827805e-02  -1.8931096e-01   7.1951392e-01  -4.1960334e-01   3.7140099e-01   4.9174649e-01  -5.6898071e-02   3.2003323e-01   5.7252705e-01  -3.2247967e-01  -5.9868184e-01   2.2247662e-01  -4.2048303e-01   7.7138353e-01  -2.5186104e-01  -3.5378765e-01   4.0552913e-01  -4.5059783e-01
   6.4809502e-02  -3.9178460e-02  -2.3800808e-01   1.8463738e-01   2.1707705e-01   1.6087802e-01   1.3164194e-02  -3.2384678e-01   5.2003687e-01   1.5885096e-01  -1.6759424e-01  -1.6171937e-02   2.2902316e-01   7.8707217e-01   2.0962067e-01  -1.2177349e-01   2.7473501e-01  -3.6415942e-01  -4.0607082e-01   1.6417067e-01  -3.2816747e-01   5.8584029e-02  -6.1065793e-01   8.5549633e-01  -9.4571069e-02
   1.3874729e-02   3.3145445e-02  -2.4562941e-02  -2.7493389e-03  -1.0455738e-01  -3.5458594e-01  -5.3131210e-02  -3.0147201e-01   1.8696809e-01  -5.4188309e-01  -7.6158881e-01  -1.0828637e+00   2.8374405e-01   1.0223332e+00  -6.6998378e-01  -5.1228454e-02   6.6493133e-01   6.0243193e-02   1.2654797e+00   4.8845091e-01  -8.9715672e-01   5.7278245e-01   1.5273028e-01  -6.0734798e-02   1.8870855e-01
  -3.3590307e-02   5.7828082e-03  -1.4853846e-01   1.6612342e-01  -1.1885867e-01  -5.7488206e-02  -7.3035620e-02   1.0389286e+00  -1.4245513e-01   2.2984102e-01  -1.6027072e-01   1.7546017e-01  -9.0063702e-01  -1.9963484e-02   2.2282140e-02  -7.3943127e-01   1.5426850e+00  -6.5382123e-01   4.5855140e-01   8.3187183e-01  -9.6596845e-02   4.1521493e-01  -1.4008046e-01   1.2789558e+00  -4.4899535e-01
  -2.4635450e-02  -1.5788616e-02  -6.5022109e-02   3.5997804e-02  -3.7580794e-02   1.1054289e-01  -2.2500529e-01   8.1124158e-03   4.2634742e-02  -5.7837836e-01   1.8698207e-01  -4.3977203e-01   6.1735788e-01   1.4762165e-01   1.0464881e+00  -2.1007249e-01  -3.9701359e-02   4.6489235e-01  -3.6908463e-01   2.3966308e-01   3.4160804e-01   4.0096431e-01   5.1711156e-01   7.1835829e-01   3.2950764e-01
  -1.6571988e-02  -1.6181547e-02   4.7203534e-02   1.7015378e-02  -4.6724184e-02   3.9248460e-01   8.7751082e-03   3.2981107e-03  -1.6327284e-01  -3.1616260e-01   6.4240774e-01  -5.8665628e-01   1.7748402e-01  -6.5368469e-02  -1.0453691e+00   5.2852595e-01   2.9361811e-01  -1.8691380e-01  -3.6390779e-01   1.3216443e-01   8.1655229e-01  -1.2045957e+00  -2.4709537e-01   3.6221286e-01  -1.3410106e-01
  -1.8387703e-02  -6.3590967e-02  -4.8928290e-02  -1.2593829e-01   1.7817545e-01  -4.5500577e-02  -1.8847092e-01   8.7569564e-02   1.7052042e-01   1.6370602e-01   9.8997348e-02   1.2810544e-01  -3.2512017e-01   3.1630451e-01  -2.6866078e-01  -1.6571559e-01   5.2209696e-02   2.2755970e-01  -2.5029043e-01   3.4585057e-01   2.2328558e-01  -2.1363751e-02   1.2953960e+00  -2.9446780e-02  -7.4454500e-01
  -2.3452389e-03  -1.1154104e-02  -1.4459046e-02  -3.1966603e-02   1.3819590e-02   5.0422444e-04  -9.4893424e-03   6.6966153e-04   4.3399767e-02   8.6979707e-03  -3.4006974e-02   6.4401812e-02   3.1815931e-02   1.3846091e-01  -3.6213371e-02  -5.3982034e-02   4.0046873e-02   4.3479098e-02   6.6554764e-03   2.2468929e-02   1.2990783e-01   5.3222479e-02   1.9842360e-01   9.0717557e-02  -1.0810973e-01
   5.4499741e-03   3.0139776e-03   8.6235811e-03   1.3110976e-02   9.4824118e-03  -1.6338878e-02  -7.7559032e-03  -9.3754437e-03  -6.7581011e-03  -2.6475694e-02   5.0973635e-02  -4.6388315e-02   2.1763031e-02  -5.1479068e-02   4.7299153e-02   8.1829329e-02   4.5018756e-03   7.6011705e-02   7.6807846e-02  -8.1980059e-03  -1.9817286e-01   1.0753428e-01   1.4766929e-01   5.4853654e-02  -2.6879984e-02
   4.9242151e-03   2.0330523e-02   1.4714932e-02   5.0794223e-02  -4.0142867e-02  -8.5084917e-03  -1.4771887e-03   2.8753205e-02   1.6690893e-02  -4.4272577e-02   1.4168512e-02   1.0773384e-01   1.1035958e-02   1.5552849e-02  -1.7261080e-01  -1.1187728e-02  -6.1262410e-02  -4.6018396e-02  -3.6636306e-02  -1.8047537e-02  -1.7318269e-01  -4.1367371e-02   2.2471528e-01  -7.2236785e-02  -2.6431416e-01
   9.5703674e-03  -3.1321741e-02  -6.6634624e-02  -1.8230874e-01  -3.0259159e-01   6.7173645e-02  -3.5842953e-02  -3.8931459e-02  -1.5767207e-01   5.3351715e-01  -3.1057432e-01   2.8216988e-01   3.4623958e-01  -1.2651704e-01   2.7160057e-01   3.3173773e-01  -3.1605267e-01  -4.4780654e-01   9.8824706e-02  -3.9760692e-01   4.5899449e-01  -2.8841191e-01  -2.6775218e-01   3.5509761e-01  -2.9247523e-01
   5.1697971e-02  -2.8937791e-02  -1.7986876e-01   1.5262654e-01   1.8663592e-01   1.2320471e-01  -5.8399937e-02  -2.4723169e-01   4.5255627e-01   9.4328758e-02  -6.6742131e-02   3.2211917e-04   1.7554204e-01   6.5161474e-01   3.3624922e-03  -9.4846110e-02   7.3222148e-02  -2.4015338e-01  -1.8988290e-01   1.0378548e-01  -3.1900295e-01   1.9042279e-01  -3.3002562e-01   6.0779511e-01  -2.0155650e-02
   1.3571867e-02   2.4588572e-02  -1.5933880e-02  -8.6839714e-03  -8.0127670e-02  -2.9210336e-01  -2.8656338e-02  -2.2221535e-01   1.8154724e-01  -4.8935945e-01  -5.8057823e-01  -9.5096857e-01   1.8948522e-01   8.0630757e-01  -5.5735583e-01   2.8458735e-02   4.6736302e-01   4.8260381e-02   9.9342037e-01   4.4632528e-01  -6.2859206e-01   4.0347205e-01   2.3100487e-01  -1.1286874e-01   2.3211202e-01
  -2.7998163e-02   1.0200875e-02  -1.3961425e-01   1.2031749e-01  -9.5339278e-02  -6.0854013e-02  -1.9743529e-02   9.8915772e-01  -1.2311975e-01   2.4630939e-01  -1.4341812e-01   8.7237466e-02  -6.6784811e-01  -4.9956296e-02   9.2053211e-02  -5.9783715e-01   1.1746048e+00  -5.2938439e-01   2.7232134e-01   6.6439688e-01   2.1990051e-02   2.0659874e-01  -1.8374701e-01   8.4156724e-01  -5.6558660e-01
  -1.7893544e-02  -1.0453836e-02  -4.5452245e-02   2.5142952e-02  -4.4425044e-02   6.2781250e-02  -1.3382539e-01   2.0547219e-02   4.3752310e-02  -4.3382584e-01   1.9028851e-01  -3.1355967e-01   4.1705177e-01   1.3016688e-01   6.9182545e-01  -1.2687018e-01  -7.6113051e-02   3.0242860e-01  -3.3313222e-01   1.6820971e-01   2.9613649e-01   2.3955276e-01   2.1812830e-01   3.7676806e-01   2.0634983e-01
  -1.5228731e-02  -1.7818410e-02   4.3177919e-02   1.7120025e-03  -3.4050265e-02   3.4466477e-01   9.7116794e-03  -9.8633467e-03  -1.2217019e-01  -3.1570136e-01   5.6477262e-01  -5.1788280e-01   1.3287255e-01  -6.4571449e-02  -9.6852727e-01   4.3086506e-01   3.0188572e-01  -2.5305524e-01  -3.3756350e-01   1.5144605e-01   6.8923405e-01  -1.0479656e+00  -8.5442870e-02   3.1588960e-01  -1.3127793e-01
  -1.5524632e-02  -5.0209662e-02  -3.0177467e-02  -9.8551293e-02   1.2896493e-01  -2.5676842e-02  -1.3568666e-01   1.6649353e-02   1.4030261e-01   1.1687036e-01   5.1230472e-02   9.3354042e-02  -2.8423796e-01   2.5667103e-01  -2.5068423e-01  -6.2207857e-02   6.4251665e-02   1.7287466e-01  -1.8133586e-01   1.8872225e-01   1.7210833e-01  -8.2980635e-02   9.4135144e-01   2.9827023e-02  -5.9240166e-01
  -1.9026314e-03   8.3394927e-03  -9.3145468e-03  -8.7769757e-03   5.6788731e-02  -4.2638690e-02  -5.4696052e-02   3.3408303e-02   5.4043008e-03   6.1727866e-02   8.3826674e-02  -6.2008227e-02  -6.3764089e-04  -3.9872066e-03   7.5583274e-02   9.2720741e-03  -2.5337716e-01   1.0051911e-01  -3.1676792e-03   1.5276815e-01  -4.7762102e-02   8.2922011e-02   9.0510948e-02  -1.6031467e-01   2.2977845e-01
  -9.6405146e-03  -5.5831702e-04  -2.2502684e-02   1.5881662e-02  -5.0346490e-03   1.5115174e-04   7.5332044e-03   2.4234498e-02   6.6173670e-03  -6.5651086e-02   1.7055241e-02   1.8315587e-02  -9.2889033e-02   1.1771161e-01  -4.0303751e-02  -1.9093809e-01  -6.0256268e-02   3.6369695e-02  -3.0931658e-01   9.1786693e-02   1.4852194e-01  -1.2022511e-01  -4.3012053e-02  -1.5545471e-01  -1.2690807e-01
   2.9213308e-03  -4.1898936e-03   1.8173917e-02  -8.1128030e-03   1.1720728e-02   3.5377580e-02   1.3523602e-02  -9.7983052e-02   2.3855645e-02   4.3360249e-02  -5.6635903e-02   9.3634911e-02  -4.4751932e-02  -7.7816565e-02   4.0362322e-02  -1.0939510e-02   2.3247747e-01   5.7534073e-02  -9.7986827e-03   2.7550954e-02   5.8217530e-02   3.3636428e-02  -1.7395289e-01   1.1475523e-01  -1.4272267e-01
   8.5299141e-03  -3.2012855e-02  -4.2835354e-02  -1.4412293e-01  -2.1797905e-01   3.7676715e-02  -4.0960605e-02  -4.8943895e-03  -1.2914412e-01   3.7320034e-01  -2.1305953e-01   1.9459297e-01   2.1373905e-01  -1.7002749e-01   2.2356056e-01   1.4228091e-01  -2.8813261e-01  -3.0966516e-01   3.1117916e-03  -3.5180312e-01   2.0543329e-01  -2.9010675e-01  -1.8843373e-01   3.0813625e-01  -1.5977852e-01
   3.9261662e-02  -1.9766074e-02  -1.3002716e-01   1.2366799e-01   1.5683342e-01   9.2331328e-02  -1.0854207e-01  -1.7905775e-01   3.8649580e-01   3.7721797e-02   2.0360160e-02   9.0056362e-03   1.1656675e-01   5.2047315e-01  -1.5541123e-01  -6.8694980e-02  -7.3012673e-02  -1.2712981e-01  -2.3870117e-02   6.4947614e-02  -2.8533677e-01   2.7507083e-01  -9.7921853e-02   3.9138981e-01   2.9442811e-02
   1.2910983e-02   1.7213324e-02  -9.4892183e-03  -1.3949906e-02  -5.7236054e-02  -2.3440067e-01  -1.9761605e-03  -1.5537395e-01   1.7317690e-01  -4.3731990e-01  -4.2386429e-01  -8.1981691e-01   1.0129510e-01   6.0502804e-01  -4.4574431e-01   9.4560358e-02   2.8555046e-01   3.6549676e-02   7.4239177e-01   3.9376540e-01  -3.8913695e-01   2.4894219e-01   2.7117413e-01  -1.5047250e-01   2.5325600e-01
  -2.2865636e-02   1.4117727e-02  -1.2927571e-01   7.9068440e-02  -7.0010347e-02  -6.3128699e-02   2.1244610e-02   9.1952081e-01  -1.0412201e-01   2.5455137e-01  -1.2926674e-01   1.7554312e-02  -4.5566132e-01  -7.2415783e-02   1.3829207e-01  -4.5864106e-01   8.3023937e-01  -4.1078274e-01   1.1514941e-01   4.9783432e-01   1.1092731e-01   2.6478300e-02  -2.1132030e-01   4.8139090e-01  -6.0027974e-01
  -1.2565461e-02  -5.8490624e-03  -3.0340173e-02   1.5738145e-02  -4.7661760e-02   2.4551326e-02  -6.2903721e-02   3.1969799e-02   4.0473726e-02  -3.1630990e-01   1.9134730e-01  -2.0765826e-01   2.5092461e-01   1.1283361e-01   4.0395137e-01  -5.6818996e-02  -1.1388737e-01   1.6427886e-01  -2.9947738e-01   9.7352473e-02   2.5641582e-01   1.1309336e-01  -5.4682775e-03   9.8819800e-02   8.9347951e-02
  -1.4038090e-02  -1.9604336e-02   3.9916237e-02  -1.2377497e-02  -2.1696052e-02   2.9968734e-01   9.0584830e-03  -2.4457305e-02  -8.3474271e-02  -3.1664866e-01   4.9409549e-01  -4.5426429e-01   9.7535488e-02  -6.8892124e-02  -8.9176589e-01   3.4576850e-01   3.1298270e-01  -3.1668111e-01  -3.0687424e-01   1.6160171e-01   5.6674905e-01  -8.9025336e-01   7.9970757e-02   2.7176670e-01  -1.0632842e-01
  -1.2965036e-02  -3.8099180e-02  -1.4605526e-02  -7.4413962e-02   8.8838355e-02  -1.2236206e-02  -9.4763854e-02  -3.4767634e-02   1.0974683e-01   8.3240666e-02   1.8664158e-02   5.6722256e-02  -2.4610320e-01   1.9544623e-01  -2.2249666e-01   2.6863827e-02   6.2743806e-02   1.2826519e-01  -1.2617948e-01   7.4453737e-02   1.1963318e-01  -1.2156132e-01   6.4608387e-01   6.7424483e-02  -4.3235851e-01
  -1.4983459e-03   1.4947323e-02  -8.4703021e-03  -6.5329562e-04   7.2657088e-02  -6.7323306e-02  -6.2175898e-02   3.9982031e-02  -1.3973320e-03   9.1054680e-02   9.0804311e-02  -7.8128353e-02  -3.9576573e-02  -6.3715715e-02   1.4695248e-01   1.9844536e-02  -3.3060264e-01   1.1496817e-01  -1.5261015e-03   1.7989785e-01  -1.3912652e-01   1.1489692e-01   5.4847460e-02  -2.5441789e-01   3.1229764e-01
  -1.4295786e-02  -2.3641895e-03  -3.1205029e-02   1.2122993e-02  -1.2079277e-02   9.8700603e-03   6.9277849e-03   3.2255138e-02   8.1397126e-03  -7.5655993e-02  -5.0272322e-03   3.2235769e-02  -9.9939090e-02   1.6517701e-01  -5.2247075e-02  -2.6079090e-01  -7.4922900e-02   2.4685483e-02  -4.2191551e-01   1.2738587e-01   2.7258338e-01  -1.8432321e-01  -1.3480388e-01  -1.8191905e-01  -1.3143858e-01
   1.2497446e-03  -1.4401883e-02   1.5335719e-02  -3.4963538e-02   3.4322518e-02   4.6565661e-02   2.1674783e-02  -1.3729335e-01   2.0639754e-02   8.3594249e-02  -8.5128812e-02   7.4713925e-02  -7.1132628e-02  -9.3198476e-02   1.1614538e-01  -8.2311780e-03   3.2568216e-01   8.0457584e-02  -9.0854305e-03   4.9593984e-02   1.6210009e-01   4.9746867e-02  -3.4455334e-01   1.6368975e-01  -5.8517028e-02
   7.3575145e-03  -3.1289162e-02  -2.4118013e-02  -1.0975785e-01  -1.4727022e-01   1.5627769e-02  -4.0022179e-02   2.1060634e-02  -1.0378464e-01   2.3877121e-01  -1.2816431e-01   1.1110690e-01   9.5349177e-02  -1.9023949e-01   1.7725254e-01   2.4044057e-04  -2.4537179e-01  -1.8590243e-01  -6.6892727e-02  -2.8898071e-01   8.4389800e-03  -2.6317595e-01  -1.1564224e-01   2.6262249e-01  -5.4292007e-02
   2.7705785e-02  -1.1673977e-02  -8.8241486e-02   9.7679142e-02   1.2808977e-01   6.7612539e-02  -1.3875955e-01  -1.1944426e-01   3.2202951e-01  -9.4985896e-03   9.2007580e-02   1.0911526e-02   5.6046270e-02   3.9605689e-01  -2.6850995e-01  -4.2772871e-02  -1.7116026e-01  -2.6454047e-02   9.5908637e-02   4.2048256e-02  -2.3334971e-01   3.1815401e-01   8.4188803e-02   2.0431899e-01   5.7047541e-02
   1.1975685e-02   1.1050632e-02  -4.9897786e-03  -1.8103524e-02  -3.6157975e-02  -1.8216503e-01   2.5099610e-02  -1.0142929e-01   1.6255189e-01  -3.8700670e-01  -2.9197599e-01  -6.8989500e-01   2.1928578e-02   4.2128570e-01  -3.3820611e-01   1.4648160e-01   1.2185312e-01   2.3059623e-02   5.1449536e-01   3.3220416e-01  -1.8200304e-01   1.1187057e-01   2.7705285e-01  -1.7311918e-01   2.5719404e-01
  -1.8255497e-02   1.7522233e-02  -1.1766627e-01   4.3012078e-02  -4.3850346e-02  -6.4143218e-02   5.0238816e-02   8.3302657e-01  -8.5466442e-02   2.5425459e-01  -1.1683693e-01  -3.2399266e-02  -2.6698727e-01  -8.7013924e-02   1.6238610e-01  -3.2293233e-01   5.1694249e-01  -3.0037129e-01  -1.1821682e-02   3.3445988e-01   1.6975253e-01  -1.2160818e-01  -2.2079107e-01   1.9560063e-01  -5.6595136e-01
  -8.4692661e-03  -2.1292837e-03  -1.9071629e-02   7.4609597e-03  -4.7124724e-02  -4.1574069e-03  -1.1707846e-02   4.0347847e-02   3.3405216e-02  -2.2417058e-01   1.8860040e-01  -1.2336128e-01   1.2035078e-01   9.3247510e-02   1.8582306e-01   4.2157287e-04  -1.4577841e-01   5.2915392e-02  -2.6304677e-01   2.9600802e-02   2.1940740e-01   2.0532395e-02  -1.5845048e-01  -1.1258366e-01  -1.6583814e-02
  -1.2999874e-02  -2.1165167e-02   3.7502038e-02  -2.4507771e-02  -9.4197109e-03   2.5762255e-01   6.2977780e-03  -3.9005277e-02  -4.8622955e-02  -3.1759904e-01   4.3296406e-01  -3.9742766e-01   7.0592189e-02  -8.0241717e-02  -8.1506920e-01   2.7493484e-01   3.2127009e-01  -3.7501161e-01  -2.7348222e-01   1.6547821e-01   4.4976776e-01  -7.3522144e-01   2.4280371e-01   2.2782311e-01  -5.8716322e-02
  -1.0688530e-02  -2.7713196e-02  -2.1554816e-03  -5.4051412e-02   5.7397055e-02  -3.8116214e-03  -6.4703060e-02  -6.9043356e-02   8.0972936e-02   6.1217923e-02  -3.8965181e-03   2.2004757e-02  -2.1119038e-01   1.3587380e-01  -1.8759028e-01   9.9748351e-02   5.5961570e-02   9.1174642e-02  -8.4298455e-02  -6.1160878e-04   6.9789696e-02  -1.4099791e-01   4.1164874e-01   9.1040358e-02  -2.7933735e-01
  -1.4176989e-03   1.3095833e-02  -1.1022278e-02  -2.7066786e-03   7.0609573e-02  -7.8336854e-02  -4.8768499e-02   3.1180327e-02   1.0958107e-02   1.0436781e-01   3.3933712e-02  -2.6436622e-02  -7.6188445e-02  -6.1479439e-02   1.8792293e-01  -2.8732010e-03  -2.7985449e-01   1.0786805e-01   4.6759732e-03   1.4292568e-01  -1.6400901e-01   1.4514676e-01   6.7150967e-02  -2.4600315e-01   2.3698041e-01
  -1.2398247e-02  -3.0569967e-03  -2.6269798e-02   5.9477001e-03  -1.3281138e-02   1.4009476e-02  -1.4971367e-03   2.4537831e-02   4.6455910e-03  -6.9290518e-02  -1.4503619e-02   1.7972926e-02  -5.2154670e-02   1.3817248e-01  -1.8763176e-02  -2.0945914e-01  -5.5127557e-02   2.9742117e-02  -3.6518200e-01   1.2213994e-01   2.5407257e-01  -1.4598191e-01  -1.5213208e-01  -1.0740254e-01  -8.4900824e-02
   1.7001456e-04  -1.4776155e-02   9.9518518e-03  -3.8922251e-02   3.6046365e-02   3.8097744e-02   2.4575206e-02  -1.2106949e-01   1.3181180e-02   9.0327087e-02  -8.6173928e-02   5.9128245e-02  -7.5715127e-02  -6.4513487e-02   1.0064906e-01  -4.6226458e-03   2.8817038e-01   5.7058424e-02  -1.6858240e-02   5.2485284e-02   1.7340198e-01   2.8393771e-02  -3.5039111e-01   1.3125400e-01  -1.0744998e-02
   6.1649154e-03  -2.9449951e-02  -1.0060335e-02  -7.9575265e-02  -8.9719339e-02   2.8288433e-04  -3.4122866e-02   4.0560465e-02  -8.1555446e-02   1.2972574e-01  -5.6518005e-02   3.3971401e-02  -7.8378579e-03  -1.9051785e-01   1.3380271e-01  -9.9291949e-02  -1.9364862e-01  -7.7884294e-02  -1.1390180e-01  -2.1502219e-01  -1.3551074e-01  -2.1447097e-01  -4.9539841e-02   2.1703958e-01   2.3480738e-02
   1.7210950e-02  -4.6823021e-03  -5.4120546e-02   7.4609602e-02   1.0085255e-01   4.8354550e-02  -1.5112739e-01  -6.8512634e-02   2.5946785e-01  -4.6411840e-02   1.4704414e-01   7.4341089e-03  -2.3468334e-03   2.8036119e-01  -3.3891609e-01  -1.6972231e-02  -2.2846285e-01   6.0707587e-02   1.7413220e-01   3.0021210e-02  -1.6890044e-01   3.2545014e-01   2.1668338e-01   4.4946878e-02   6.6253703e-02
   1.0857154e-02   6.0955690e-03  -2.1395319e-03  -2.0761147e-02  -1.7168929e-02  -1.3586144e-01   5.0860852e-02  -6.0406980e-02   1.5041958e-01  -3.3945741e-01  -1.8459598e-01  -5.6189133e-01  -4.6377007e-02   2.5727477e-01  -2.3757896e-01   1.8410746e-01  -2.1547903e-02   6.3242173e-03   3.1140138e-01   2.6354341e-01  -9.2186636e-03  -5.6330579e-03   2.5351982e-01  -1.8099835e-01   2.4845724e-01
  -1.4217561e-02   2.0391985e-02  -1.0502250e-01   1.2569709e-02  -1.7889747e-02  -6.3789171e-02   6.8017325e-02   7.3325641e-01  -6.7183341e-02   2.4546301e-01  -1.0516610e-01  -6.2580276e-02  -1.0401840e-01  -9.3742843e-02   1.6657800e-01  -1.9233702e-01   2.4087116e-01  -2.0009175e-01  -1.0861989e-01   1.7721667e-01   1.9928284e-01  -2.3527108e-01  -2.1159819e-01  -2.0964091e-02  -4.7732350e-01
  -5.4687869e-03   6.4716034e-04  -1.1118126e-02   1.7091357e-04  -4.3024963e-02  -2.3879163e-02   2.1407776e-02   4.4650925e-02   2.3351335e-02  -1.5527706e-01   1.8115067e-01  -6.0644572e-02   2.3913213e-02   7.0722881e-02   3.5465189e-02   4.4707737e-02  -1.6727104e-01  -3.1387409e-02  -2.2175286e-01  -3.2424623e-02   1.8390728e-01  -4.1104289e-02  -2.4840050e-01  -2.5933137e-01  -1.0807626e-01
  -1.2118261e-02  -2.2316994e-02   3.5917588e-02  -3.4198407e-02   2.6603608e-03   2.1866510e-01   1.5961496e-03  -5.2442624e-02  -1.8471224e-02  -3.1741000e-01   3.8196444e-01  -3.4716680e-01   5.0763806e-02  -9.9341456e-02  -7.3892084e-01   2.1885551e-01   3.2412955e-01  -4.2609845e-01  -2.3875748e-01   1.6465235e-01   3.3963989e-01  -5.8614809e-01   3.9724484e-01   1.8403600e-01   7.9834522e-03
  -8.6817665e-03  -1.9312026e-02   7.3807373e-03  -3.7639314e-02   3.3985838e-02   9.2957604e-04  -4.4385394e-02  -8.8890365e-02   5.5629911e-02   4.8858982e-02  -2.0377671e-02  -8.2847538e-03  -1.7952378e-01   8.0445636e-02  -1.4914378e-01   1.5554979e-01   4.9948651e-02   5.9396535e-02  -5.5067408e-02  -4.0816185e-02   2.5109917e-02  -1.4550701e-01   2.3601562e-01   1.0653748e-01  -1.4339410e-01
  -1.6632471e-03   6.7991715e-03  -1.5675927e-02  -1.0411795e-02   5.8952792e-02  -8.0586202e-02  -2.7837647e-02   1.5882977e-02   3.2079670e-02   1.0894458e-01  -4.8959990e-02   5.6110432e-02  -1.0460554e-01  -2.0068085e-02   2.0856339e-01  -4.0697893e-02  -1.7286306e-01   9.4687593e-02   1.2540949e-02   7.6201061e-02  -1.4522176e-01   1.7109754e-01   1.0529214e-01  -1.8195352e-01   8.7043554e-02
  -7.3606771e-03  -3.0731819e-03  -1.5199431e-02   1.4497159e-04  -1.0840859e-02   1.3845961e-02  -1.1467525e-02   1.0193168e-02   3.2266227e-04  -5.6770354e-02  -1.3534535e-02  -6.6306983e-03   1.0761804e-02   7.7615179e-02   3.2232240e-02  -1.0547592e-01  -1.8824980e-02   4.1732806e-02  -2.2916847e-01   9.6357284e-02   1.6377465e-01  -5.9371167e-02  -1.2176582e-01   2.1544846e-03  -2.3342765e-02
  -2.1714035e-04  -9.4449568e-03   4.7586759e-03  -2.8882929e-02   2.5349023e-02   2.0783298e-02   2.3892850e-02  -7.7583755e-02   5.6441514e-03   7.6934275e-02  -7.2627580e-02   5.0927035e-02  -6.6350464e-02  -1.8634464e-02   3.6259436e-02  -1.3422361e-03   1.8426638e-01   1.4510166e-02  -2.1513508e-02   4.2186336e-02   1.2673378e-01  -9.6532664e-03  -2.5575632e-01   6.4610046e-02   6.3694590e-03
   5.0481029e-03  -2.6786650e-02  -1.8120819e-04  -5.3773297e-02  -4.4338482e-02  -9.2364711e-03  -2.4477990e-02   5.4997201e-02  -6.2329892e-02   4.4867774e-02   1.7252721e-03  -3.4828971e-02  -9.4888602e-02  -1.7460432e-01   9.4083648e-02  -1.6192770e-01  -1.3790314e-01   1.3379368e-02  -1.4097251e-01  -1.3558484e-01  -2.3105432e-01  -1.5104375e-01   9.4172938e-03   1.7037986e-01   7.4308168e-02
   7.9227893e-03   1.1906176e-03  -2.7122841e-02   5.4434515e-02   7.5544166e-02   3.3840371e-02  -1.4815027e-01  -2.6340285e-02   1.9923934e-01  -7.2748255e-02   1.8488926e-01   2.2701714e-04  -5.5415938e-02   1.7484329e-01  -3.7077841e-01   8.4362366e-03  -2.5194680e-01   1.3345554e-01   2.1601546e-01   2.4487663e-02  -9.7295945e-02   3.0286172e-01   3.0170860e-01  -8.8056177e-02   6.1084380e-02
   9.6469215e-03   2.3033809e-03  -6.0785797e-04  -2.1626634e-02  -5.3460733e-04  -9.5720669e-02   7.3782633e-02  -3.1862220e-02   1.3753944e-01  -2.9545658e-01  -1.0063082e-01  -4.3664786e-01  -1.0198339e-01   1.1456678e-01  -1.4634387e-01   2.0778395e-01  -1.4277763e-01  -1.4490503e-02   1.3425119e-01   1.9004312e-01   1.2844985e-01  -1.0211486e-01   2.0616849e-01  -1.7492115e-01   2.3086042e-01
  -1.0786389e-02   2.2701615e-02  -9.1651478e-02  -1.2053434e-02   6.8338012e-03  -6.2023731e-02   7.5758111e-02   6.2415656e-01  -4.9326089e-02   2.2855396e-01  -9.3382747e-02  -7.4006265e-02   3.1904821e-02  -9.2911133e-02   1.5381562e-01  -6.8881369e-02   6.7192463e-03  -1.1142512e-01  -1.7639923e-01   2.9431672e-02   2.0154074e-01  -3.1341009e-01  -1.8460105e-01  -1.7532532e-01  -3.5006379e-01
  -3.4585869e-03   2.5074049e-03  -6.0073679e-03  -6.1332837e-03  -3.5916329e-02  -3.5550695e-02   3.8957880e-02   4.4729942e-02   1.1254514e-02  -1.0706157e-01   1.6863094e-01  -1.8254648e-02  -4.1912144e-02   4.5916480e-02  -5.3380175e-02   7.5786982e-02  -1.7644629e-01  -9.0231752e-02  -1.7586954e-01  -8.6356899e-02   1.5006160e-01  -7.6248877e-02  -2.8500289e-01  -3.4711788e-01  -1.8315907e-01
  -1.1407538e-02  -2.3031809e-02   3.5054219e-02  -4.1217186e-02   1.4162771e-02   1.8310181e-01  -4.4065654e-03  -6.4040153e-02   6.6209325e-03  -3.1520841e-01   3.4019875e-01  -3.0193846e-01   3.6575216e-02  -1.2579802e-01  -6.6419930e-01   1.7702180e-01   3.2111004e-01  -4.6863186e-01  -2.0379521e-01   1.5976884e-01   2.3822763e-01  -4.4577338e-01   5.3808172e-01   1.4182914e-01   8.7303170e-02
  -6.9376117e-03  -1.2985587e-02   1.4330518e-02  -2.5061992e-02   1.7720072e-02   3.2219608e-03  -3.2565422e-02  -9.7224842e-02   3.4868290e-02   4.3991521e-02  -3.3579823e-02  -3.2757874e-02  -1.5080067e-01   3.0922231e-02  -1.1005568e-01   1.9419433e-01   4.8784902e-02   3.1052521e-02  -3.7732855e-02  -5.1116102e-02  -1.3151405e-02  -1.3944787e-01   1.1375998e-01   1.1804413e-01  -3.0141704e-02
  -2.0664275e-03  -6.4857451e-04  -2.1050175e-02  -1.9938649e-02   4.4403977e-02  -7.8560529e-02  -8.7142029e-03   5.1216271e-04   5.3960803e-02   1.1078325e-01  -1.3062010e-01   1.4080258e-01  -1.2206871e-01   3.8922551e-02   2.1788525e-01  -7.9188126e-02  -6.1654386e-02   8.5207062e-02   2.1157282e-02   6.5243260e-03  -1.0514186e-01   1.9174232e-01   1.5081577e-01  -9.9259438e-02  -7.3968891e-02
  -1.8002399e-03  -2.6924431e-03  -3.5891111e-03  -3.7520174e-03  -6.9541555e-03   1.0722931e-02  -1.9034087e-02  -3.6097030e-03  -2.7204304e-03  -4.5048056e-02  -5.7332205e-03  -2.9408276e-02   6.3594754e-02   1.4411538e-02   7.9208266e-02   1.0155775e-03   1.7510078e-02   5.3515791e-02  -8.2006188e-02   6.5329415e-02   5.6188157e-02   3.3521049e-02  -6.8422858e-02   1.0104299e-01   2.8745651e-02
   3.8802155e-05  -1.8229377e-03   1.4027197e-03  -1.2519493e-02   9.6928221e-03   2.5629735e-03   2.1175045e-02  -2.9034315e-02   3.9058839e-04   5.4870656e-02  -5.4471510e-02   5.0817308e-02  -5.0387307e-02   2.5515041e-02  -4.2482448e-02   6.0229399e-04   6.5952137e-02  -2.8231046e-02  -1.7755336e-02   2.5322138e-02   5.2983654e-02  -4.7470579e-02  -1.1808185e-01  -1.9179515e-03   1.5709396e-03
   4.0835276e-03  -2.3572780e-02   6.0482003e-03  -3.2389907e-02  -9.9421492e-03  -1.3902745e-02  -1.2363641e-02   6.5481059e-02  -4.5904294e-02  -1.7610363e-02   4.6865411e-02  -9.3672961e-02  -1.6514391e-01  -1.4639972e-01   5.8713274e-02  -1.9366494e-01  -8.2068438e-02   8.7301491e-02  -1.5135638e-01  -5.5921909e-02  -2.8379420e-01  -7.9771570e-02   6.0571799e-02   1.2212908e-01   1.0016667e-01
  -5.3246444e-05   5.9361736e-03  -6.5744896e-03   3.7141502e-02   5.2516307e-02   2.3352480e-02  -1.3262750e-01   7.1021361e-03   1.4187520e-01  -8.8876090e-02   2.0555239e-01  -8.9375629e-03  -1.0053645e-01   8.0414366e-02  -3.6927311e-01   3.2918515e-02  -2.4826404e-01   1.9123492e-01   2.2714096e-01   2.1813965e-02  -2.3234456e-02   2.5632254e-01   3.4302115e-01  -1.9576860e-01   4.5700483e-02
   8.4306266e-03  -4.1112608e-04  -5.3000113e-05  -2.0514064e-02   1.3504483e-02  -6.1743334e-02   9.2595390e-02  -1.4891879e-02   1.2464043e-01  -2.5550424e-01  -3.8314014e-02  -3.1512049e-01  -1.4388770e-01  -5.8956318e-03  -6.6504818e-02   2.1828570e-01  -2.4039542e-01  -3.9568548e-02  -1.6408348e-02   1.1418452e-01   2.3149055e-01  -1.7684814e-01   1.4095589e-01  -1.5628784e-01   2.0738405e-01
  -7.9790550e-03   2.4430772e-02  -7.7905967e-02  -3.0861549e-02   2.9324699e-02  -5.8870034e-02   7.4946284e-02   5.0982348e-01  -3.1964487e-02   2.0421261e-01  -8.0774287e-02  -6.8614603e-02   1.4037650e-01  -8.5117163e-02   1.2757770e-01   4.5180143e-02  -1.8248904e-01  -3.5356770e-02  -2.1733302e-01  -1.0546974e-01   1.7961062e-01  -3.5630023e-01  -1.4194587e-01  -2.7582577e-01  -1.9987175e-01
  -2.3439297e-03   3.5440733e-03  -3.2893064e-03  -1.1366429e-02  -2.6623408e-02  -4.0376263e-02   4.4032878e-02   4.1113186e-02  -1.8636396e-03  -7.6565546e-02   1.5108083e-01   6.0980421e-03  -8.1986313e-02   2.0384973e-02  -9.0250954e-02   9.3700196e-02  -1.7356889e-01  -1.2664231e-01  -1.2722736e-01  -1.3038744e-01   1.1874769e-01  -9.0207133e-02  -2.7924726e-01  -3.8428745e-01  -2.4098742e-01
  -1.0890967e-02  -2.3392731e-02   3.4734153e-02  -4.5548310e-02   2.4559940e-02   1.5126107e-01  -1.0823124e-02  -7.3322037e-02   2.6674065e-02  -3.1035509e-01   3.0583205e-01  -2.5943727e-01   2.6559011e-02  -1.5829675e-01  -5.9200227e-01   1.4821671e-01   3.1305411e-01  -5.0176869e-01  -1.6937322e-01   1.5093215e-01   1.4760119e-01  -3.1628098e-01   6.6073447e-01   1.0347479e-01   1.7122551e-01
  -5.4546687e-03  -8.6824235e-03   1.9100409e-02  -1.5982072e-02   7.5333791e-03   4.1458102e-03  -2.7890883e-02  -9.7002392e-02   1.9346123e-02   4.4336913e-02  -4.5335047e-02  -5.0958494e-02  -1.2451977e-01  -1.1596267e-02  -7.2956732e-02   2.1633710e-01   5.4870535e-02   4.5826135e-03  -3.1393745e-02  -3.6958034e-02  -4.4813458e-02  -1.2712523e-01   3.6980717e-02   1.2812462e-01   5.8589289e-02
  -2.4000868e-03  -6.8690699e-03  -2.5935174e-02  -2.8401472e-02   3.1680101e-02  -7.5893344e-02   3.3074135e-03  -1.1082121e-02   7.1310734e-02   1.1404414e-01  -1.9444235e-01   2.0844791e-01  -1.2859873e-01   9.7652897e-02   2.2290564e-01  -1.0902445e-01   2.1827597e-02   8.4140993e-02   3.0020585e-02  -4.8294014e-02  -6.2780676e-02   2.0730818e-01   1.8990192e-01  -2.3919032e-02  -2.0439707e-01
   2.6091624e-03  -2.0909742e-03   5.1015671e-03  -5.2623792e-03  -3.3526853e-03   5.9511451e-03  -2.2535676e-02  -1.2336082e-02  -3.8715349e-03  -3.7747683e-02   5.1404181e-03  -4.3885858e-02   9.4559413e-02  -3.2159089e-02   1.0920089e-01   7.9858616e-02   4.1790903e-02   6.1102074e-02   3.3349332e-02   3.8775876e-02  -3.3537358e-02   1.0547548e-01  -1.1844347e-02   1.6388156e-01   5.9030020e-02
   7.7565237e-04   5.6051561e-03   5.2915083e-04   4.3367343e-03  -5.2090615e-03  -1.1631446e-02   1.7693661e-02   9.6850346e-03  -1.6741589e-03   3.2793946e-02  -3.8456340e-02   5.7209015e-02  -3.3973092e-02   5.6780557e-02  -1.1124663e-01   5.7694603e-04  -3.1067974e-02  -6.0240093e-02  -5.5865665e-03   8.2420491e-03  -2.3229601e-02  -7.3868857e-02   1.7686373e-02  -4.7786729e-02  -1.5342685e-02
   3.3263862e-03  -2.0056368e-02   9.1864521e-03  -1.5313395e-02   1.4804185e-02  -1.4738854e-02   9.3504839e-04   7.2827538e-02  -3.2016026e-02  -6.0001122e-02   7.9618490e-02  -1.4137265e-01  -2.1830917e-01  -1.0973240e-01   2.8087039e-02  -2.0057294e-01  -2.9082901e-02   1.4376328e-01  -1.4835189e-01   1.9280198e-02  -3.0011994e-01  -7.0374629e-03   1.0318110e-01   7.2223740e-02   1.0412364e-01
  -6.6516826e-03   9.5573838e-03   8.2927502e-03   2.2710990e-02   3.2021353e-02   1.6185276e-02  -1.0753558e-01   3.2015823e-02   8.7988186e-02  -9.5677606e-02   2.0964245e-01  -1.8331122e-02  -1.3567419e-01  -2.4676046e-03  -3.4031821e-01   5.5819138e-02  -2.2362227e-01   2.3390268e-01   2.1332434e-01   1.9121571e-02   4.9116638e-02   1.9164117e-01   3.4573811e-01  -2.7913318e-01   2.4185225e-02
   7.2830937e-03  -2.1698518e-03  -1.4419843e-04  -1.7363648e-02   2.4753964e-02  -3.3720123e-02   1.0633718e-01  -8.1750345e-03   1.1237747e-01  -2.1980616e-01   4.6676754e-03  -1.9835187e-01  -1.7171945e-01  -1.0379408e-01   5.0538934e-04   2.1677190e-01  -3.1351327e-01  -6.8457501e-02  -1.4065267e-01   3.8521496e-02   3.0156317e-01  -2.2987907e-01   6.3875011e-02  -1.2702228e-01   1.8013877e-01
  -5.7931516e-03   2.5571113e-02  -6.4159764e-02  -4.4055123e-02   4.8681658e-02  -5.4415145e-02   6.7265742e-02   3.9429486e-01  -1.5176970e-02   1.7340560e-01  -6.6841679e-02  -4.9079743e-02   2.2194869e-01  -7.1205142e-02   9.1689748e-02   1.4755557e-01  -3.2553020e-01   2.7638908e-02  -2.3445426e-01  -2.2422896e-01   1.3744296e-01  -3.6561409e-01  -8.6843803e-02  -3.3156564e-01  -4.1607322e-02
  -2.0205432e-03   3.8947464e-03  -2.5056649e-03  -1.5412430e-02  -1.6133296e-02  -3.9701783e-02   3.9990148e-02   3.4747687e-02  -1.4970131e-02  -6.0512972e-02   1.2885139e-01   1.5455513e-02  -1.0177144e-01  -3.9074319e-03  -8.6749400e-02   9.9095695e-02  -1.6047079e-01  -1.4456059e-01  -7.8373648e-02  -1.6345052e-01   9.0974136e-02  -8.8540620e-02  -2.4260599e-01  -3.8065862e-01  -2.8153613e-01
  -1.0594542e-02  -2.3544588e-02   3.4739062e-02  -4.7350266e-02   3.3298139e-02   1.2344942e-01  -1.6728188e-02  -7.9997483e-02   4.1965559e-02  -3.0238937e-01   2.7660577e-01  -2.1716589e-01   1.9422402e-02  -1.9487543e-01  -5.2343198e-01   1.3081712e-01   3.0132699e-01  -5.2500942e-01  -1.3591500e-01   1.3809602e-01   6.9671590e-02  -1.9930007e-01   7.6127602e-01   7.1510070e-02   2.5147192e-01
  -4.2365136e-03  -6.2427179e-03   2.2133822e-02  -9.9127994e-03   2.2382222e-03   4.5853074e-03  -2.8941143e-02  -9.1049862e-02   9.2664184e-03   4.7632717e-02  -5.6667078e-02  -6.3148625e-02  -1.0010154e-01  -4.6572924e-02  -4.0196913e-02   2.2325028e-01   6.9200431e-02  -2.1248587e-02  -3.4966783e-02  -4.1118266e-03  -7.0517956e-02  -1.1257885e-01  -3.6689609e-03   1.3801351e-01   1.2394400e-01
  -2.4690272e-03  -1.0471378e-02  -2.9479382e-02  -3.3991257e-02   2.3416900e-02  -7.5078131e-02   6.4597754e-03  -1.7349737e-02   8.1494800e-02   1.2090939e-01  -2.3336692e-01   2.4920604e-01  -1.2624398e-01   1.4369820e-01   2.2817588e-01  -1.2615712e-01   6.3612350e-02   9.2295342e-02   3.8179532e-02  -7.9475379e-02  -3.1879302e-02   2.1863668e-01   2.1370579e-01   2.8876591e-02  -2.8356511e-01
   5.1074573e-03  -1.3707007e-03   9.4162182e-03  -4.6687409e-03  -1.0194626e-03   6.6638190e-04  -2.2131018e-02  -1.4231824e-02  -3.4920568e-03  -3.5669488e-02   1.6124152e-02  -4.8516351e-02   1.0236640e-01  -5.4055068e-02   1.1796147e-01   1.1907522e-01   4.7929398e-02   6.3381279e-02   9.7909070e-02   2.1358929e-02  -8.8774002e-02   1.4395661e-01   3.4617376e-02   1.8293662e-01   6.5610703e-02
   1.7720983e-03   1.1322281e-02   1.9869915e-03   1.7944061e-02  -1.5762997e-02  -1.9587506e-02   1.4352466e-02   3.1000700e-02  -6.6771199e-04   1.6262223e-02  -2.8225475e-02   6.7333679e-02  -2.1523168e-02   7.0742158e-02  -1.5630829e-01  -1.4229511e-03  -8.8206958e-02  -7.7391610e-02   1.1549306e-02  -3.8373115e-03  -8.4985680e-02  -8.3915113e-02   1.2196849e-01  -6.5047498e-02  -3.5200379e-02
   2.8101344e-03  -1.6453755e-02   9.8013565e-03  -2.2984641e-03   3.1332843e-02  -1.2774301e-02   1.4174028e-02   7.7570750e-02  -2.0368740e-02  -8.4937462e-02   1.0106454e-01  -1.7721799e-01  -2.5452945e-01  -6.8149592e-02   2.4205590e-03  -1.8850927e-01   1.9044339e-02   1.8312923e-01  -1.3517578e-01   8.6049298e-02  -2.8697949e-01   6.1540488e-02   1.3654726e-01   2.0988148e-02   9.0163632e-02
  -1.1843525e-02   1.2068670e-02   1.8291910e-02   1.1093573e-02   1.4203519e-02   1.1646473e-02  -7.5917496e-02   4.8820363e-02   3.8238075e-02  -9.4366240e-02   1.9836959e-01  -2.6426018e-02  -1.5937905e-01  -7.3666675e-02  -2.9019127e-01   7.6486177e-02  -1.8375309e-01   2.6176115e-01   1.8049108e-01   1.4289081e-02   1.1601106e-01   1.1432489e-01   3.1601770e-01  -3.3912786e-01   3.8042202e-04
   6.2648711e-03  -3.1230540e-03  -5.8011449e-04  -1.2249575e-02   3.3090508e-02  -1.1265833e-02   1.1438732e-01  -1.0041790e-02   1.0128984e-01  -1.8828953e-01   3.1034683e-02  -8.7456045e-02  -1.8570694e-01  -1.7942590e-01   5.3885375e-02   2.0473111e-01  -3.6189248e-01  -1.0011553e-01  -2.3916835e-01  -3.4466405e-02   3.4135780e-01  -2.6203669e-01  -1.9329859e-02  -8.9477156e-02   1.5041092e-01
  -4.2055611e-03   2.6132032e-02  -5.0783991e-02  -5.2012337e-02   6.4149651e-02  -4.8806619e-02   5.4486585e-02   2.8135659e-01   9.5633523e-04   1.3734767e-01  -5.1336132e-02  -1.8600445e-02   2.7808966e-01  -5.2214997e-02   5.0134793e-02   2.3610584e-01  -4.2302120e-01   7.7587861e-02  -2.3145935e-01  -3.2398236e-01   7.9630600e-02  -3.4436886e-01  -2.3281358e-02  -3.5185731e-01   1.1148176e-01
  -2.3593638e-03   3.7250327e-03  -3.1699710e-03  -1.8174310e-02  -5.4671765e-03  -3.4909420e-02   3.0163604e-02   2.6727984e-02  -2.7095019e-02  -5.5424102e-02   1.0253885e-01   1.3280886e-02  -1.0671950e-01  -2.5064455e-02  -5.5277093e-02   9.3380596e-02  -1.3984287e-01  -1.4835679e-01  -3.1837581e-02  -1.8526757e-01   6.7424535e-02  -7.6510680e-02  -1.8625317e-01  -3.4646172e-01  -3.0534098e-01
  -1.0538387e-02  -2.3645601e-02   3.4841286e-02  -4.6908479e-02   3.9903843e-02   9.9884448e-02  -2.1323932e-02  -8.3917379e-02   5.2913329e-02  -2.9098139e-01   2.5026458e-01  -1.7292549e-01   1.4147958e-02  -2.3323825e-01  -4.5939091e-01   1.2304284e-01   2.8723933e-01  -5.3813579e-01  -1.0350125e-01   1.2139608e-01   5.8458950e-03  -9.5914878e-02   8.3646127e-01   4.8227745e-02   3.2057780e-01
  -3.2900907e-03  -5.4324703e-03   2.3871961e-02  -6.2856173e-03   5.9282192e-04   5.2050955e-03  -3.4275797e-02  -8.1909124e-02   4.4398553e-03   5.1748123e-02  -6.7947116e-02  -7.0090191e-02  -7.6991880e-02  -7.3932495e-02  -1.3806171e-02   2.1671653e-01   9.1615318e-02  -4.7333340e-02  -4.7131914e-02   4.1534495e-02  -9.1456686e-02  -9.9366442e-02  -1.7954942e-02   1.4789970e-01   1.6917520e-01
  -2.1653548e-03  -1.1001422e-02  -3.1289597e-02  -3.5974965e-02   2.0392757e-02  -7.7369648e-02   1.6206019e-03  -1.8496510e-02   8.4145351e-02   1.3183876e-01  -2.4785616e-01   2.6123241e-01  -1.1810852e-01   1.7068150e-01   2.3588880e-01  -1.3091918e-01   6.3813926e-02   1.0797355e-01   4.4145941e-02  -8.6076622e-02  -2.0193310e-02   2.2651483e-01   2.1810893e-01   5.3422852e-02  -3.0832716e-01
   5.6738199e-03  -5.8065802e-04   9.4907687e-03  -2.6890062e-03  -1.5135837e-04  -4.2755990e-03  -1.9079981e-02  -9.9288950e-03  -2.4391911e-03  -3.7699215e-02   2.5496592e-02  -4.5272474e-02   9.2326703e-02  -5.2356879e-02   1.0832053e-01   1.2061619e-01   3.5944661e-02   6.1315102e-02   1.1187493e-01   1.3842523e-02  -1.0765202e-01   1.4872504e-01   6.4035750e-02   1.6352028e-01   5.3746322e-02
   2.8018464e-03   1.4668125e-02   5.0960767e-03   2.6549322e-02  -2.0490502e-02  -2.1215732e-02   1.1678091e-02   3.3666311e-02   2.7108841e-03   7.9206024e-03  -2.4824387e-02   7.8266893e-02  -1.5464624e-02   6.8144750e-02  -1.7333472e-01  -4.6132310e-03  -1.0209077e-01  -8.0465297e-02   2.8888967e-02  -7.4977596e-03  -1.2327806e-01  -7.8256077e-02   1.8066126e-01  -5.5607602e-02  -5.0727877e-02
   2.5463647e-03  -1.2943705e-02   8.4521936e-03   7.0138909e-03   4.1120146e-02  -9.0011398e-03   2.6203474e-02   7.9994744e-02  -1.0661886e-02  -9.5259440e-02   1.1258151e-01  -2.0099199e-01  -2.7445324e-01  -2.4763006e-02  -1.8224061e-02  -1.6289527e-01   6.1140660e-02   2.0622837e-01  -1.1486550e-01   1.4125285e-01  -2.5158523e-01   1.2134094e-01   1.6015216e-01  -3.0931903e-02   6.2954361e-02
  -1.5632573e-02   1.3498140e-02   2.4234148e-02   2.1900234e-03  -8.9426108e-04   9.0534747e-03  -4.0763660e-02   5.8163453e-02  -6.7174638e-03  -8.6318461e-02   1.7352950e-01  -3.2023991e-02  -1.7080264e-01  -1.3327636e-01  -2.2513965e-01   9.4340148e-02  -1.3386409e-01   2.7554491e-01   1.3453454e-01   5.9679619e-03   1.7409249e-01   2.9445529e-02   2.6070649e-01  -3.7694980e-01  -2.2268962e-02
   5.4201938e-03  -3.4370144e-03  -1.1019524e-03  -5.3788966e-03   3.8487463e-02   6.1370764e-03   1.1648156e-01  -1.8566667e-02   9.1765633e-02  -1.6064390e-01   4.3770015e-02   1.6389716e-02  -1.8662090e-01  -2.3369189e-01   9.3486451e-02   1.8391510e-01  -3.8600954e-01  -1.3299221e-01  -3.1320627e-01  -1.0250766e-01   3.5441112e-01  -2.7489953e-01  -1.0339304e-01  -4.6313500e-02   1.1877949e-01
  -3.1725768e-03   2.6145088e-02  -3.8124359e-02  -5.5265516e-02   7.5166812e-02  -4.2247427e-02   3.8360044e-02   1.7437501e-01   1.6359209e-02   9.7452423e-02  -3.4275150e-02   1.9330344e-02   3.1107754e-01  -2.9336603e-02   6.8581234e-03   3.0901683e-01  -4.7735792e-01   1.1497730e-01  -2.1249460e-01  -4.0244457e-01   1.1180223e-02  -2.9678944e-01   4.4313444e-02  -3.4572884e-01   2.4838222e-01
  -3.2009721e-03   3.2122448e-03  -4.7648790e-03  -1.9608394e-02   4.4355758e-03  -2.7328513e-02   1.7621659e-02   1.8067214e-02  -3.7391970e-02  -5.7775312e-02   7.2927749e-02   3.1517530e-03  -1.0183159e-01  -4.1626555e-02  -7.8855540e-03   7.8699698e-02  -1.1457243e-01  -1.4239985e-01   1.0389183e-02  -1.9627899e-01   4.8207364e-02  -5.8665373e-02  -1.2039748e-01  -2.9149211e-01  -3.1332988e-01
  -1.0728677e-02  -2.3825712e-02   3.4833827e-02  -4.4587874e-02   4.4061806e-02   8.0634702e-02  -2.4045491e-02  -8.5057872e-02   5.9981409e-02  -2.7591298e-01   2.2486214e-01  -1.2517342e-01   1.0019786e-02  -2.7106658e-01  -4.0043568e-01   1.2311673e-01   2.7170592e-01  -5.4120282e-01  -7.1954768e-02   1.0137916e-01  -4.3229699e-02  -6.6768511e-03   8.8378268e-01   3.5290626e-02   3.7264882e-01
  -2.6232456e-03  -5.9763396e-03   2.4721324e-02  -4.5076560e-03   1.3679163e-03   6.4468019e-03  -4.2485084e-02  -7.1706949e-02   4.3653925e-03   5.4787122e-02  -7.9043770e-02  -7.2836148e-02  -5.4745903e-02  -9.3966502e-02   4.5645731e-03   1.9893370e-01   1.2102331e-01  -7.4196890e-02  -6.6274778e-02   9.4207607e-02  -1.0909592e-01  -9.0357857e-02  -1.5150773e-02   1.5723864e-01   1.9878522e-01
  -1.4871415e-03  -8.7850372e-03  -3.1435655e-02  -3.4561485e-02   2.1976730e-02  -8.2868170e-02  -8.7349784e-03  -1.5816209e-02   8.0547587e-02   1.4607552e-01  -2.4335949e-01   2.4855698e-01  -1.0742648e-01   1.7789769e-01   2.4645050e-01  -1.2650219e-01   3.1856730e-02   1.2833607e-01   4.6367040e-02  -7.2874002e-02  -2.9795580e-02   2.3118693e-01   2.0299957e-01   5.1352003e-02  -2.8800658e-01
   4.7645612e-03   2.5007035e-04   6.4794159e-03  -1.5763233e-04  -3.7375687e-04  -8.3124615e-03  -1.4981426e-02  -1.6211183e-03  -1.6230435e-03  -4.1864263e-02   3.2714867e-02  -3.7872076e-02   7.2477119e-02  -3.3984545e-02   8.7393214e-02   9.4992859e-02   1.0697510e-02   5.6926993e-02   8.7806799e-02   1.4435161e-02  -9.7800902e-02   1.2792097e-01   7.4887730e-02   1.1854510e-01   3.2028260e-02
   3.6782541e-03   1.5643357e-02   8.9307770e-03   3.0012363e-02  -1.9682103e-02  -1.7822318e-02   9.8780337e-03   2.1055184e-02   7.5250619e-03   8.0261485e-03  -2.7415774e-02   8.7643353e-02  -1.6303906e-02   5.3046848e-02  -1.6510013e-01  -7.5609395e-03  -8.0607833e-02  -7.3064699e-02   4.2214279e-02  -1.4646356e-03  -1.3609849e-01  -6.1566960e-02   1.9298215e-01  -2.7645803e-02  -5.7343925e-02
   2.5245831e-03  -9.6619210e-03   5.6776688e-03   1.3074290e-02   4.5629627e-02  -4.3291796e-03   3.6023515e-02   8.0178788e-02  -2.6179929e-03  -9.3906764e-02   1.1576541e-01  -2.1295651e-01  -2.7927623e-01   1.7841835e-02  -3.3944092e-02  -1.2856067e-01   9.6761401e-02   2.1430705e-01  -9.0217455e-02   1.8268778e-01  -2.0107141e-01   1.6893113e-01   1.7378548e-01  -8.2622721e-02   2.7558810e-02
  -1.8054075e-02   1.3894595e-02   2.6897472e-02  -4.1603518e-03  -1.3318009e-02   7.7359393e-03  -4.8767691e-03   6.0889816e-02  -4.6277556e-02  -7.2976239e-02   1.3745497e-01  -3.4338721e-02  -1.6975543e-01  -1.8160908e-01  -1.5107121e-01   1.0887692e-01  -7.8553399e-02   2.7636611e-01   8.1136096e-02  -6.3969358e-03   2.2049525e-01  -5.8409674e-02   1.8698741e-01  -3.9415400e-01  -4.0892530e-02
   4.7761728e-03  -3.2793775e-03  -1.5009865e-03   2.9189197e-03   4.1036634e-02   1.9090856e-02   1.1270905e-01  -3.1678769e-02   8.4017663e-02  -1.3638243e-01   4.5975940e-02   1.1195396e-01  -1.7570174e-01  -2.6807329e-01   1.1979355e-01   1.5626315e-01  -3.8708717e-01  -1.6513980e-01  -3.6450636e-01  -1.6365176e-01   3.4489195e-01  -2.7071811e-01  -1.8369862e-01  -3.6176885e-04   8.5286411e-02
  -2.6317540e-03   2.5666851e-02  -2.6479684e-02  -5.4472902e-02   8.1400993e-02  -3.4988214e-02   2.0530039e-02   7.6163454e-02   3.0964750e-02   5.5262656e-02  -1.5937520e-02   6.1159172e-02   3.2383914e-01  -3.8719687e-03  -3.4433818e-02   3.6494123e-01  -4.9255327e-01   1.4069060e-01  -1.8194294e-01  -4.5804674e-01  -6.2709311e-02  -2.2808805e-01   1.1142389e-01  -3.2149869e-01   3.6074977e-01
  -4.3608878e-03   2.5286534e-03  -6.7585299e-03  -1.9738688e-02   1.2801002e-02  -1.8161472e-02   4.9878033e-03   9.5448701e-03  -4.5176175e-02  -6.4193274e-02   4.0933008e-02  -1.1483049e-02  -9.1391547e-02  -5.2783233e-02   4.4648139e-02   5.7761511e-02  -8.7223856e-02  -1.3071198e-01   4.7118603e-02  -1.9749891e-01   3.2819077e-02  -3.8607917e-02  -5.3774461e-02  -2.2452350e-01  -3.0674929e-01
  -1.1152085e-02  -2.4156253e-02   3.4555206e-02  -4.0790144e-02   4.5656578e-02   6.5576429e-02  -2.4604200e-02  -8.3524375e-02   6.3616752e-02  -2.5709223e-01   1.9893455e-01  -7.3224168e-02   6.5892763e-03  -3.0628451e-01  -3.4671542e-01   1.2933282e-01   2.5513238e-01  -5.3456404e-01  -4.0993582e-02   7.9099596e-02  -7.7809987e-02   6.8376182e-02   9.0155943e-01   3.3499238e-02   4.0376102e-01
  -2.2417923e-03  -7.5870202e-03   2.5028970e-02  -4.0068349e-03   3.4083343e-03   8.5442508e-03  -5.2235692e-02  -6.2062603e-02   8.3200908e-03   5.5176267e-02  -8.9469085e-02  -7.2542840e-02  -3.3091347e-02  -1.0724689e-01   1.3711074e-02   1.7242164e-01   1.5559287e-01  -1.0197720e-01  -9.0457591e-02   1.4849631e-01  -1.2490757e-01  -8.7567067e-02  -3.3324114e-03   1.6506622e-01   2.1773445e-01
  -5.2824118e-04  -4.6936974e-03  -3.0363745e-02  -3.0652474e-02   2.6681600e-02  -9.0748983e-02  -2.1532508e-02  -1.1037552e-02   7.2933585e-02   1.6220086e-01  -2.2771493e-01   2.1868919e-01  -9.6908756e-02   1.6910100e-01   2.5924016e-01  -1.1726533e-01  -1.8302842e-02   1.5047993e-01   4.3901917e-02  -4.7768262e-02  -5.8043166e-02   2.3220284e-01   1.7124905e-01   2.9064441e-02  -2.3882850e-01
   3.0346716e-03   1.0721322e-03   1.9499126e-03   2.2257434e-03  -1.0958316e-03  -1.1113726e-02  -1.1165617e-02   7.9469249e-03  -1.6577358e-03  -4.6253723e-02   3.8009378e-02  -3.0074509e-02   5.0510379e-02  -8.0710044e-03   6.3495005e-02   5.6037531e-02  -2.0260793e-02   5.2373935e-02   4.3477852e-02   2.0014407e-02  -7.1030336e-02   9.3602434e-02   6.9444970e-02   6.3324173e-02   8.9599312e-03
   4.2835319e-03   1.4693900e-02   1.2581952e-02   2.9265559e-02  -1.4801419e-02  -1.1410129e-02   8.9306657e-03  -8.9271037e-04   1.2791547e-02   1.5143116e-02  -3.4025339e-02   9.3953705e-02  -2.2981564e-02   3.0947761e-02  -1.3873132e-01  -8.6705633e-03  -3.7891499e-02  -5.9774859e-02   4.9096558e-02   1.3421151e-02  -1.2669372e-01  -4.0564288e-02   1.6785444e-01   8.1012937e-03  -5.3474132e-02
   2.7121297e-03  -6.6974305e-03   1.9889124e-03   1.6401376e-02   4.6253316e-02   4.5895755e-04   4.2836110e-02   7.8056228e-02   3.9994514e-03  -8.3833240e-02   1.1233870e-01  -2.1381305e-01  -2.7074681e-01   5.7645777e-02  -4.5029137e-02  -8.9653308e-02   1.2606303e-01   2.0896499e-01  -6.3755093e-02   2.0911948e-01  -1.4214827e-01   2.0220115e-01   1.7764733e-01  -1.3293803e-01  -1.0885638e-02
  -1.9176414e-02   1.3336929e-02   2.7014577e-02  -8.1794899e-03  -2.3197028e-02   7.0553354e-03   2.9271679e-02   5.7983814e-02  -7.9941312e-02  -5.5829935e-02   9.2921368e-02  -3.3023871e-02  -1.5677654e-01  -2.1925028e-01  -7.3370751e-02   1.1963087e-01  -2.1711977e-02   2.6564072e-01   2.5550501e-02  -2.2575200e-02   2.5304176e-01  -1.4510230e-01   1.0204821e-01  -3.9270171e-01  -5.3388003e-02
   4.3429236e-03  -2.8046402e-03  -1.6214666e-03   1.2211280e-02   4.0961395e-02   2.8236504e-02   1.0349186e-01  -4.7278377e-02   7.8075268e-02  -1.1491442e-01   4.0736502e-02   1.9796976e-01  -1.5457482e-01  -2.8458546e-01   1.3386891e-01   1.2382063e-01  -3.6709002e-01  -1.9434806e-01  -3.9520409e-01  -2.1635737e-01   3.1736579e-01  -2.5230002e-01  -2.5639750e-01   4.5525711e-02   4.9638013e-02
  -2.5054240e-03   2.4779562e-02  -1.6083024e-02  -5.0386293e-02   8.2771708e-02  -2.7316085e-02   2.4659041e-03  -1.1108876e-02   4.4722426e-02   1.2363705e-02   3.1619653e-03   1.0349433e-01   3.1975266e-01   2.2800017e-02  -7.0472529e-02   4.0310516e-01  -4.7398846e-01   1.5592309e-01  -1.4422323e-01  -4.9003455e-01  -1.3686287e-01  -1.4417410e-01   1.7378897e-01  -2.8643835e-01   4.4313762e-01
  -5.6430987e-03   1.8273291e-03  -8.6356037e-03  -1.8655316e-02   1.9072526e-02  -8.4304447e-03  -5.6784313e-03   1.6353920e-03  -4.9948235e-02  -7.1654983e-02   7.5462410e-03  -2.7489459e-02  -7.8846684e-02  -5.8434477e-02   9.3480644e-02   3.3547588e-02  -5.9701602e-02  -1.1672532e-01   7.8013279e-02  -1.9032207e-01   2.0285220e-02  -1.8942310e-02   6.6929284e-03  -1.5296706e-01  -2.8716201e-01
  -1.1773538e-02  -2.4633993e-02   3.3905338e-02  -3.5920029e-02   4.4777813e-02   5.4373433e-02  -2.2979888e-02  -7.9564575e-02   6.4219125e-02  -2.3458851e-01   1.7155455e-01  -1.7300075e-02   3.6091779e-03  -3.3724586e-01  -2.9799110e-01   1.4005622e-01   2.3748161e-01  -5.1890207e-01  -1.0417412e-02   5.6077837e-02  -9.9079921e-02   1.2968182e-01   8.8905491e-01   4.2716749e-02   4.1203336e-01
  -2.1463571e-03  -9.9883425e-03   2.5066065e-02  -4.2660237e-03   5.6894619e-03   1.1551183e-02  -6.2309507e-02  -5.4044872e-02   1.5445568e-02   5.1736488e-02  -9.8519863e-02  -7.0321242e-02  -1.1970928e-02  -1.1455282e-01   1.2944074e-02   1.3991192e-01   1.9293077e-01  -1.3041949e-01  -1.1744752e-01   1.9959928e-01  -1.4011372e-01  -9.2047269e-02   1.1067492e-02   1.7029085e-01   2.3075979e-01
   5.4947254e-04   1.2988083e-04  -2.8737910e-02  -2.5517350e-02   3.2703147e-02  -9.9581376e-02  -3.3883693e-02  -5.7948552e-03   6.3813626e-02   1.7857316e-01  -2.0888927e-01   1.8037810e-01  -8.8464796e-02   1.5075714e-01   2.7326655e-01  -1.0729982e-01  -7.2249420e-02   1.7210896e-01   3.6933204e-02  -1.9195307e-02  -9.8849974e-02   2.2863511e-01   1.2756493e-01  -4.8211540e-03  -1.7884119e-01
   1.1048852e-03   1.7799590e-03  -2.6352113e-03   4.0404194e-03  -1.8650697e-03  -1.2488250e-02  -8.3607820e-03   1.6413186e-02  -2.6631812e-03  -4.9599891e-02   4.1852982e-02  -2.4427459e-02   3.1937234e-02   1.7203119e-02   4.3560970e-02   1.6743442e-02  -4.9106085e-02   4.9302100e-02  -4.0951204e-03   2.7078265e-02  -3.9042594e-02   5.7667934e-02   5.2046740e-02   1.1452147e-02  -9.3787396e-03
   4.5758563e-03   1.2500830e-02   1.5354058e-02   2.5747390e-02  -7.8341284e-03  -4.0819185e-03   8.6921951e-03  -2.5623845e-02   1.7588362e-02   2.6850096e-02  -4.2244432e-02   9.6564431e-02  -3.3399301e-02   7.2696483e-03  -1.0310334e-01  -6.7989148e-03   1.0601717e-02  -4.4794921e-02   4.9311094e-02   3.4495658e-02  -1.0149734e-01  -2.2069036e-02   1.1965627e-01   4.1512462e-02  -4.0382802e-02
   3.0552006e-03  -4.0924181e-03  -2.1358856e-03   1.7556066e-02   4.4256319e-02   4.7485833e-03   4.6082779e-02   7.3485328e-02   9.3803613e-03  -6.7925052e-02   1.0405414e-01  -2.0464926e-01  -2.5111511e-01   9.3208055e-02  -5.1994738e-02  -4.9601992e-02   1.4965306e-01   1.9208605e-01  -3.7712126e-02   2.2026255e-01  -8.0807231e-02   2.2041487e-01   1.7240741e-01  -1.8052340e-01  -4.7488063e-02
  -1.9104053e-02   1.1941309e-02   2.5273630e-02  -1.0139762e-02  -3.0748538e-02   6.4431518e-03   5.9669928e-02   5.0507857e-02  -1.0732757e-01  -3.6441289e-02   4.3005953e-02  -2.8156151e-02  -1.3316304e-01  -2.4711741e-01   3.1769804e-03   1.2614053e-01   3.3535807e-02   2.4502100e-01  -2.7611857e-02  -4.1618333e-02   2.7043671e-01  -2.2686523e-01   1.2776654e-02  -3.7490765e-01  -5.8587233e-02
   4.1143923e-03  -2.1423062e-03  -1.3603971e-03   2.1989093e-02   3.8617762e-02   3.4213905e-02   8.9548342e-02  -6.3349884e-02   7.3793932e-02  -9.5618374e-02   3.0989980e-02   2.7317001e-01  -1.2515732e-01  -2.8569872e-01   1.3726568e-01   8.8656215e-02  -3.2868439e-01  -2.1829383e-01  -4.0772898e-01  -2.5955413e-01   2.7654916e-01  -2.2286814e-01  -3.1847915e-01   8.8619751e-02   1.1414418e-02
  -2.7052949e-03   2.3588991e-02  -7.0877205e-03  -4.3815818e-02   7.9455868e-02  -1.9540612e-02  -1.4583978e-02  -8.5960952e-02   5.7607143e-02  -2.9707821e-02   2.2317313e-02   1.4330041e-01   3.0243772e-01   4.9266141e-02  -9.8606799e-02   4.2337887e-01  -4.2809869e-01   1.6208739e-01  -1.0360785e-01  -4.9853005e-01  -2.0634785e-01  -5.1319248e-02   2.2771287e-01  -2.4653519e-01   4.9302124e-01
  -6.8583405e-03   1.2298866e-03  -9.9373625e-03  -1.6501189e-02   2.2929077e-02   1.0561497e-03  -1.2944965e-02  -5.4844089e-03  -5.1404277e-02  -7.7664611e-02  -2.6214688e-02  -4.2174708e-02  -6.6792035e-02  -5.9113527e-02   1.3208653e-01   8.9756778e-03  -3.3114933e-02  -1.0313669e-01   1.0347435e-01  -1.7632734e-01   9.4051251e-03  -1.3676580e-03   5.6063907e-02  -8.2737933e-02  -2.5647107e-01
  -1.2537238e-02  -2.5181356e-02   3.2849165e-02  -3.0362945e-02   4.1694941e-02   4.6483160e-02  -1.9380035e-02  -7.3575734e-02   6.2141116e-02  -2.0866617e-01   1.4229489e-01   4.1544811e-02   9.6654993e-04  -3.6281973e-01  -2.5371095e-01   1.5369593e-01   2.1844628e-01  -4.9523699e-01   1.9722127e-02   3.4140476e-02  -1.0909864e-01   1.7808155e-01   8.4660299e-01   6.1927668e-02   3.9744855e-01
  -2.3292639e-03  -1.2930217e-02   2.5019557e-02  -4.8490201e-03   7.3687755e-03   1.5373989e-02  -7.1635010e-02  -4.8184774e-02   2.4820871e-02   4.3738153e-02  -1.0541304e-01  -6.7139577e-02   8.4385241e-03  -1.1681333e-01   2.1495561e-03   1.0420724e-01   2.3025985e-01  -1.5889461e-01  -1.4481957e-01   2.4355170e-01  -1.5545840e-01  -1.0386746e-01   2.3433619e-02   1.7194391e-01   2.4183746e-01
   1.5518450e-03   4.5451121e-03  -2.7245858e-02  -2.0449909e-02   3.8358051e-02  -1.0768058e-01  -4.3585370e-02  -1.2860529e-03   5.5442904e-02   1.9359171e-01  -1.9333532e-01   1.4181275e-01  -8.3249863e-02   1.3014031e-01   2.8754588e-01  -9.9519934e-02  -1.1804061e-01   1.9178177e-01   2.6866477e-02   6.0131849e-03  -1.4403518e-01   2.1956094e-01   7.7381904e-02  -4.1625191e-02  -1.2401237e-01
  -5.8336240e-04   2.2085217e-03  -6.2625850e-03   5.1593953e-03  -2.5601298e-03  -1.2332718e-02  -6.6689009e-03   2.2393522e-02  -4.2873636e-03  -5.1442621e-02   4.4544637e-02  -2.1767207e-02   1.9504813e-02   3.6620587e-02   3.1638056e-02  -1.3375806e-02  -6.9762994e-02   4.8539752e-02  -4.2487825e-02   3.2455835e-02  -1.0699814e-02   2.8882442e-02   2.7670360e-02  -2.7735033e-02  -2.0313978e-02
   4.5734670e-03   9.7832964e-03   1.6864929e-02   2.0934416e-02  -7.6977525e-04   2.4255594e-03   9.0087151e-03  -4.7450940e-02   2.1174895e-02   4.0353441e-02  -4.9853084e-02   9.5661711e-02  -4.4979721e-02  -1.3517327e-02  -6.6828559e-02  -1.6999702e-03   5.1933184e-02  -3.1113093e-02   4.4450063e-02   5.7697844e-02  -6.8242024e-02  -1.1503391e-02   6.4068797e-02   6.5237824e-02  -2.1555609e-02
   3.4820129e-03  -1.8463074e-03  -6.2590449e-03   1.7112665e-02   4.0732646e-02   8.1223907e-03   4.5459368e-02   6.6326198e-02   1.3672229e-02  -4.8904796e-02   9.2604365e-02  -1.8688213e-01  -2.2301946e-01   1.2366573e-01  -5.5583070e-02  -1.1120894e-02   1.6841913e-01   1.6577010e-01  -1.4014593e-02   2.1670821e-01  -2.2117108e-02   2.2415703e-01   1.5920736e-01  -2.2384699e-01  -7.7889667e-02
  -1.7978366e-02   9.8623194e-03   2.2320284e-02  -1.0348544e-02  -3.6283914e-02   5.4473220e-03   8.4850313e-02   3.9553084e-02  -1.2817292e-01  -1.6441070e-02  -9.0820074e-03  -2.0197891e-02  -1.0091099e-01  -2.6646024e-01   7.4426672e-02   1.2794921e-01   8.4811452e-02   2.1634746e-01  -7.4559486e-02  -6.1994521e-02   2.7235282e-01  -3.0024629e-01  -7.4515634e-02  -3.4331248e-01  -5.6336329e-02
   4.0696721e-03  -1.3896218e-03  -6.6543630e-04   3.1698530e-02   3.4482052e-02   3.7630713e-02   7.1842413e-02  -7.8063433e-02   7.0881194e-02  -7.7906872e-02   1.9414871e-02   3.3634270e-01  -8.9561121e-02  -2.7422473e-01   1.3192060e-01   5.2782053e-02  -2.7515946e-01  -2.3469648e-01  -4.0470398e-01  -2.9267707e-01   2.2706783e-01  -1.8590136e-01  -3.6780709e-01   1.2644670e-01  -2.9733868e-02
  -3.1373039e-03   2.2219292e-02   4.3919038e-04  -3.5593630e-02   7.1878457e-02  -1.1979174e-02  -2.9620899e-02  -1.4759707e-01   6.9628479e-02  -6.9544662e-02   4.0694675e-02   1.7805039e-01   2.7555396e-01   7.4136306e-02  -1.1693932e-01   4.2631178e-01  -3.6201709e-01   1.6071591e-01  -6.4058980e-02  -4.8455714e-01  -2.6670127e-01   4.4190951e-02   2.7031677e-01  -2.0636426e-01   5.1063767e-01
  -7.8429416e-03   8.1626528e-04  -1.0302903e-02  -1.3452353e-02   2.4273965e-02   9.7174306e-03  -1.6022297e-02  -1.1866090e-02  -4.9435477e-02  -8.0383335e-02  -5.9349872e-02  -5.3362755e-02  -5.7015110e-02  -5.5808816e-02   1.5638847e-01  -1.3415039e-02  -7.8242825e-03  -9.1847979e-02   1.2444346e-01  -1.5711253e-01  -9.7942455e-04   1.3130928e-02   9.1393000e-02  -1.8273668e-02  -2.1692532e-01
  -1.3370590e-02  -2.5662707e-02   3.1406753e-02  -2.4473649e-02   3.6809726e-02   4.1189283e-02  -1.4183073e-02  -6.6093064e-02   5.7711606e-02  -1.7979746e-01   1.1113654e-01   1.0159743e-01  -1.3660807e-03  -3.8237015e-01  -2.1311082e-01   1.6869159e-01   1.9765113e-01  -4.6489232e-01   4.9014233e-02   1.5181611e-02  -1.1068290e-01   2.1470932e-01   7.7571286e-01   8.9387152e-02   3.6151791e-01
  -2.7719000e-03  -1.6195744e-02   2.4991047e-02  -5.4198299e-03   7.8281518e-03   1.9804309e-02  -7.9311151e-02  -4.4539538e-02   3.5518974e-02   3.0936137e-02  -1.0941524e-01  -6.3775842e-02   2.7734518e-02  -1.1506018e-01  -1.8173544e-02   6.8014125e-02   2.6460291e-01  -1.8644534e-01  -1.7013433e-01   2.7740123e-01  -1.7103374e-01  -1.2217818e-01   3.0896319e-02   1.6937202e-01   2.5381421e-01
   2.2895370e-03   7.6420836e-03  -2.6418113e-02  -1.6469157e-02   4.2367898e-02  -1.1344088e-01  -4.9341907e-02   1.8768705e-03   4.9486346e-02   2.0582970e-01  -1.8509531e-01   1.0940657e-01  -8.1873071e-02   1.1367901e-01   3.0118401e-01  -9.5342453e-02  -1.4787394e-01   2.0883002e-01   1.5952625e-02   2.3978416e-02  -1.8468399e-01   2.0460135e-01   2.5900106e-02  -7.4147422e-02  -8.5787869e-02
  -1.8104529e-03   2.1906640e-03  -8.4905618e-03   5.6400449e-03  -3.3098800e-03  -1.0679608e-02  -5.8007202e-03   2.5565710e-02  -5.9806386e-03  -5.1931271e-02   4.6085551e-02  -2.1583913e-02   1.3571382e-02   4.8393063e-02   2.8667765e-02  -2.9436171e-02  -7.9019799e-02   5.0054881e-02  -6.5283749e-02   3.3893575e-02   9.1628343e-03   1.1389796e-02   1.0748475e-03  -4.9995078e-02  -2.4338322e-02
   4.3263043e-03   7.1374593e-03   1.7047205e-02   1.6036474e-02   4.7223095e-03   7.0345002e-03   9.7996026e-03  -6.2408070e-02   2.3124974e-02   5.2976326e-02  -5.5280013e-02   9.2155040e-02  -5.5158043e-02  -2.8156509e-02  -3.6959562e-02   5.8577608e-03   7.7949688e-02  -2.0210843e-02   3.7025828e-02   7.8121673e-02  -3.4546646e-02  -1.2000922e-02   1.4658115e-02   7.5674064e-02  -1.7346166e-03
   3.9084699e-03   7.6114149e-05  -9.9951578e-03   1.5627184e-02   3.6578482e-02   1.0372330e-02   4.0905550e-02   5.6514576e-02   1.6989241e-02  -2.9217026e-02   7.9545509e-02  -1.6220209e-01  -1.8932196e-01   1.4872237e-01  -5.6710988e-02   2.3752556e-02   1.8335044e-01   1.3226640e-01   5.7469031e-03   1.9981217e-01   2.9880047e-02   2.1517254e-01   1.3960315e-01  -2.6125493e-01  -9.8489319e-02
  -1.5973599e-02   7.2864817e-03   1.8750239e-02  -9.1350747e-03  -4.0202859e-02   3.7705423e-03   1.0391011e-01   2.6207757e-02  -1.4232051e-01   2.5484735e-03  -6.0175119e-02  -9.9593569e-03  -6.2554689e-02  -2.7876915e-01   1.3694438e-01   1.2464881e-01   1.3037046e-01   1.8161684e-01  -1.1241510e-01  -8.1772261e-02   2.5935553e-01  -3.6212349e-01  -1.5433670e-01  -3.0053219e-01  -4.7447706e-02
   4.1746803e-03  -6.0966063e-04   4.6857936e-04   4.0775419e-02   2.9125889e-02   3.9040836e-02   5.1521727e-02  -8.9860568e-02   6.8934309e-02  -6.1278139e-02   8.3325581e-03   3.8640446e-01  -4.9996483e-02  -2.5317679e-01   1.2003374e-01   1.8078833e-02  -2.1030699e-01  -2.4147158e-01  -3.8885135e-01  -3.1567281e-01   1.7323748e-01  -1.4496512e-01  -4.0312326e-01   1.5690181e-01  -7.3920176e-02
  -3.7060467e-03   2.0805087e-02   6.5147424e-03  -2.6538179e-02   6.0690401e-02  -4.9438745e-03  -4.1910333e-02  -1.9586216e-01   8.0837080e-02  -1.0592727e-01   5.7411097e-02   2.0582619e-01   2.4262206e-01   9.6116790e-02  -1.2440197e-01   4.1313116e-01  -2.8319889e-01   1.5336623e-01  -2.9083930e-02  -4.5002632e-01  -3.1415832e-01   1.3638857e-01   2.9971609e-01  -1.6907197e-01   4.9866682e-01
  -8.4737024e-03   6.2068380e-04  -9.5014948e-03  -9.6998606e-03   2.3211900e-02   1.7189117e-02  -1.4740563e-02  -1.7694842e-02  -4.4130319e-02  -7.8696360e-02  -9.0902625e-02  -5.9449509e-02  -5.0571366e-02  -4.9756677e-02   1.6468285e-01  -3.1717019e-02   1.6395344e-02  -8.3983054e-02   1.4219118e-01  -1.3417097e-01  -1.1748544e-02   2.4060171e-02   1.1161990e-01   3.7362145e-02  -1.7107767e-01
  -1.4190450e-02  -2.5912997e-02   2.9632341e-02  -1.8573808e-02   3.0599007e-02   3.7656375e-02  -7.8789720e-03  -5.7755215e-02   5.1270455e-02  -1.4864716e-01   7.8357837e-02   1.6071738e-01  -3.3600114e-03  -3.9565393e-01  -1.7531217e-01   1.8353662e-01   1.7483069e-01  -4.2941382e-01   7.6675450e-02   9.0306172e-04  -1.0723520e-01   2.4084990e-01   6.7912268e-01   1.2281475e-01   3.0687912e-01
  -3.4430628e-03  -1.9602743e-02   2.5001335e-02  -5.7546329e-03   6.6987081e-03   2.4549513e-02  -8.4622823e-02  -4.2792966e-02   4.6651233e-02   1.3579081e-02  -1.0996561e-01  -6.0806370e-02   4.5329372e-02  -1.1037930e-01  -4.6916806e-02   3.3769286e-02   2.9296758e-01  -2.1185844e-01  -1.9117067e-01   2.9930172e-01  -1.8619634e-01  -1.4536096e-01   3.2071115e-02   1.6235846e-01   2.6821753e-01
   2.6125179e-03   8.8876612e-03  -2.6509278e-02  -1.4118079e-02   4.3975646e-02  -1.1561133e-01  -5.0775680e-02   3.6631751e-03   4.6898664e-02   2.1413440e-01  -1.8562737e-01   8.7185183e-02  -8.4572999e-02   1.0587383e-01   3.1327632e-01  -9.4841744e-02  -1.5860910e-01   2.2309866e-01   6.5509855e-03   3.4160455e-02  -2.1254724e-01   1.8429144e-01  -2.2663555e-02  -9.7539796e-02  -7.0045832e-02
  -2.5420954e-03   1.6431341e-03  -9.3767300e-03   5.5611411e-03  -4.2421834e-03  -7.7856237e-03  -5.4088056e-03   2.6342466e-02  -7.3553555e-03  -5.1455089e-02   4.6292868e-02  -2.2871815e-02   1.2984995e-02   5.3356751e-02   3.3247753e-02  -3.1022065e-02  -7.6711594e-02   5.3128768e-02  -7.1528056e-02   3.0459992e-02   1.9643554e-02   4.6767366e-03  -2.3549512e-02  -5.5625250e-02  -2.4024392e-02
   3.8907988e-03   4.9426673e-03   1.6079571e-02   1.1859284e-02   7.4685319e-03   9.4072009e-03   1.1076280e-02  -6.8538125e-02   2.3404886e-02   6.2535679e-02  -5.7806971e-02   8.7462387e-02  -6.1771204e-02  -3.4532749e-02  -1.8286366e-02   1.4294492e-02   8.5965844e-02  -1.2228941e-02   2.9473750e-02   9.0766350e-02  -7.0045310e-03  -2.4128393e-02  -1.9362698e-02   7.2881815e-02   1.4228195e-02
   4.2457540e-03   1.7338926e-03  -1.3025774e-02   1.3605054e-02   3.2484973e-02   1.1491107e-02   3.2574922e-02   4.4121806e-02   1.9421623e-02  -1.0910152e-02   6.6239248e-02  -1.3251565e-01  -1.5291972e-01   1.6861269e-01  -5.6370840e-02   5.3590070e-02   1.9537274e-01   9.3905276e-02   2.0353675e-02   1.7156077e-01   7.2195940e-02   1.9611589e-01   1.1545670e-01  -2.9106003e-01  -1.0660241e-01
  -1.3287583e-02   4.4192182e-03   1.5088644e-02  -6.8434225e-03  -4.2966406e-02   1.2871746e-03   1.1647023e-01   1.1537909e-02  -1.4971476e-01   1.9069010e-02  -1.0730446e-01   1.4370707e-03  -2.0934658e-02  -2.8560563e-01   1.8813765e-01   1.1594882e-01   1.6892763e-01   1.4294945e-01  -1.3922568e-01  -9.8819151e-02   2.3269754e-01  -4.0980337e-01  -2.2221470e-01  -2.4913602e-01  -3.3522664e-02
   4.3842134e-03   1.6570522e-04   2.0047544e-03   4.8679617e-02   2.3181274e-02   3.8931943e-02   2.9848265e-02  -9.7521548e-02   6.7483204e-02  -4.5352497e-02  -3.6978028e-04   4.2248527e-01  -8.6805142e-03  -2.2561940e-01   1.0394134e-01  -1.3773614e-02  -1.3825878e-01  -2.3687691e-01  -3.6290661e-01  -3.2897663e-01   1.1888437e-01  -1.0353652e-01  -4.2402045e-01   1.7834238e-01  -1.2090153e-01
  -4.3185601e-03   1.9481487e-02   1.1229262e-02  -1.7420167e-02   4.6735384e-02   1.2690323e-03  -5.0983874e-02  -2.3116433e-01   9.1325427e-02  -1.3785706e-01   7.1622150e-02   2.2536641e-01   2.0687242e-01   1.1409166e-01  -1.2076354e-01   3.8570256e-01  -1.9904446e-01   1.4153385e-01  -1.6115788e-03  -3.9767275e-01  -3.4586081e-01   2.1991466e-01   3.1511392e-01  -1.3646594e-01   4.6178565e-01
  -8.6762486e-03   6.3528626e-04  -7.4483683e-03  -5.4374312e-03   2.0024015e-02   2.3289539e-02  -9.4937800e-03  -2.3199479e-02  -3.5782104e-02  -7.2215700e-02  -1.1996337e-01  -5.9448494e-02  -4.7874277e-02  -4.2259588e-02   1.5740396e-01  -4.4815806e-02   4.0136136e-02  -7.9965834e-02   1.5813275e-01  -1.0881832e-01  -2.3340825e-02   3.1219396e-02   1.1736437e-01   8.2342150e-02  -1.2168431e-01
  -1.4911107e-02  -2.5771963e-02   2.7588596e-02  -1.2954906e-02   2.3560768e-02   3.4999102e-02  -1.0144976e-03  -4.9252688e-02   4.3200039e-02  -1.1603470e-01   4.4434464e-02   2.1658888e-01  -4.9535480e-03  -4.0268269e-01  -1.3940327e-01   1.9683642e-01   1.4995659e-01  -3.9045093e-01   1.0163612e-01  -7.4051421e-03  -1.0250382e-01   2.5779214e-01   5.6077962e-01   1.5959678e-01   2.3689267e-01
  -4.2984702e-03  -2.3001909e-02   2.4999432e-02  -5.7450179e-03   3.8619383e-03   2.9260018e-02  -8.7047799e-02  -4.2374128e-02   5.7404865e-02  -7.6126680e-03  -1.0678444e-01  -5.8616168e-02   6.0523380e-02  -1.0385375e-01  -8.2420057e-02   3.4854354e-03   3.1252581e-01  -2.3375888e-01  -2.0617327e-01   3.0850562e-01  -1.9960536e-01  -1.7124191e-01   2.6687091e-02   1.5116883e-01   2.8523943e-01
   2.4399134e-03   8.1724490e-03  -2.7470860e-02  -1.3395893e-02   4.2926858e-02  -1.1349867e-01  -4.8309721e-02   4.5069798e-03   4.7977746e-02   2.1777282e-01  -1.9419824e-01   7.6681342e-02  -9.1233745e-02   1.0891012e-01   3.2279924e-01  -9.7196216e-02  -1.5137972e-01   2.3465290e-01   2.8338830e-04   3.8828265e-02  -2.2145996e-01   1.6013344e-01  -6.5550523e-02  -1.0959207e-01  -7.7164050e-02
  -2.8568752e-03   6.2253636e-04  -9.2889615e-03   4.9042299e-03  -5.2729479e-03  -4.1534020e-03  -5.3339365e-03   2.5401983e-02  -8.3969403e-03  -5.0325453e-02   4.4975125e-02  -2.4889803e-02   1.6024181e-02   5.3592241e-02   4.2784485e-02  -2.1038431e-02  -6.5247604e-02   5.6704058e-02  -6.4085289e-02   2.2638270e-02   2.2781759e-02   4.6748764e-03  -4.2709880e-02  -4.8092737e-02  -2.2584239e-02
   3.3192598e-03   3.3530330e-03   1.4289975e-02   8.8001766e-03   6.8937075e-03   9.8174372e-03   1.2886950e-02  -6.5782163e-02   2.2335547e-02   6.7618974e-02  -5.7484840e-02   8.3123162e-02  -6.3362430e-02  -3.1598976e-02  -1.3033502e-02   2.1640427e-02   7.8164180e-02  -6.4690880e-03   2.3405668e-02   9.1516906e-02   9.3887724e-03  -4.6100975e-02  -3.4013277e-02   5.9751466e-02   2.2494483e-02
   4.4086015e-03   3.1987124e-03  -1.5112839e-02   1.1471677e-02   2.8948223e-02   1.1644776e-02   2.0796775e-02   2.9391347e-02   2.1042280e-02   4.4577618e-03   5.3813194e-02  -9.9881486e-02  -1.1656324e-01   1.8402223e-01  -5.5511382e-02   7.7477759e-02   2.0522120e-01   5.3024062e-02   2.8995482e-02   1.3443017e-01   1.0288444e-01   1.7024650e-01   8.8795955e-02  -3.1165652e-01  -1.0056195e-01
  -1.0129379e-02   1.4691199e-03   1.1762076e-02  -3.8307985e-03  -4.5048811e-02  -1.9659772e-03   1.2259268e-01  -3.4322677e-03  -1.5041353e-01   3.2011301e-02  -1.4782783e-01   1.2603681e-02   2.1045453e-02  -2.8841291e-01   2.2640885e-01   1.0173512e-01   1.9947772e-01   1.0253598e-01  -1.5391065e-01  -1.1098306e-01   1.9407965e-01  -4.4116835e-01  -2.7483590e-01  -1.9157782e-01  -1.6688347e-02
   4.6444485e-03   9.2902072e-04   3.8713438e-03   5.4927003e-02   1.7298882e-02   3.7721049e-02   8.1251278e-03  -1.0021241e-01   6.6032851e-02  -2.9893629e-02  -5.2928131e-03   4.4401436e-01   3.2247374e-02  -1.9452370e-01   8.5985928e-02  -4.1358463e-02  -6.3288345e-02  -2.1964516e-01  -3.2953937e-01  -3.3346111e-01   6.7218227e-02  -6.4829121e-02  -4.3087953e-01   1.8966221e-01  -1.7001307e-01
  -4.8876265e-03   1.8373424e-02   1.4729442e-02  -8.9309122e-03   3.1007073e-02   6.3876311e-03  -5.6628752e-02  -2.5437659e-01   1.0122068e-01  -1.6457013e-01   8.2609305e-02   2.3606480e-01   1.7112035e-01   1.2719659e-01  -1.0657660e-01   3.4644890e-01  -1.1653461e-01   1.2657603e-01   1.6105936e-02  -3.3094277e-01  -3.6001398e-01   2.9025704e-01   3.1680904e-01  -1.0919351e-01   4.0612589e-01
  -8.4264998e-03   8.1958147e-04  -4.2009271e-03  -8.5480906e-04   1.5140529e-02   2.7971695e-02  -1.1520068e-03  -2.8583133e-02  -2.4892787e-02  -6.1227814e-02  -1.4566140e-01  -5.3015946e-02  -4.8794030e-02  -3.4553877e-02   1.3675889e-01  -5.2439974e-02   6.4130897e-02  -7.9637802e-02   1.7367940e-01  -8.2176883e-02  -3.5685658e-02   3.4558628e-02   1.1064287e-01   1.1593256e-01  -7.1550484e-02
  -1.5453494e-02  -2.5116627e-02   2.5323836e-02  -7.8817430e-03   1.6171877e-02   3.2358559e-02   5.8549384e-03  -4.1268498e-02   3.3944302e-02  -8.2888390e-02   9.9647456e-03   2.6696277e-01  -6.0862638e-03  -4.0359583e-01  -1.0450616e-01   2.0738733e-01   1.2330645e-01  -3.4961903e-01   1.2270520e-01  -8.9972438e-03  -1.0026292e-01   2.6670711e-01   4.2573013e-01   1.9697667e-01   1.5527726e-01
  -5.2810007e-03  -2.6271518e-02   2.4876124e-02  -5.3925201e-03  -5.7012382e-04   3.3550186e-02  -8.6257921e-02  -4.2582547e-02   6.7072067e-02  -3.1502682e-02  -9.9949381e-02  -5.7428965e-02   7.2603915e-02  -9.6509034e-02  -1.2258056e-01  -2.1366096e-02   3.2078891e-01  -2.5072534e-01  -2.1406013e-01   3.0526055e-01  -2.0939147e-01  -1.9733974e-01   1.5192569e-02   1.3652628e-01   3.0387219e-01
   1.7831214e-03   5.7686280e-03  -2.9013554e-02  -1.3832736e-02   3.9379821e-02  -1.0709946e-01  -4.2993053e-02   5.1063046e-03   5.2505706e-02   2.1662625e-01  -2.0860345e-01   7.7169931e-02  -1.0123510e-01   1.2285343e-01   3.2863373e-01  -1.0125302e-01  -1.3055152e-01   2.4354776e-01  -2.6329873e-03   4.1863742e-02  -2.0862243e-01   1.3431574e-01  -1.0159158e-01  -1.1057017e-01  -1.0285604e-01
  -2.8735917e-03  -6.7322767e-04  -8.6848944e-03   3.5377002e-03  -6.0531382e-03  -4.4971424e-04  -5.6690461e-03   2.3292994e-02  -9.4344379e-03  -4.8640525e-02   4.2067839e-02  -2.7516406e-02   2.1083246e-02   5.1096942e-02   5.4559377e-02  -4.1022804e-03  -4.8727404e-02   5.9790185e-02  -4.7719252e-02   1.2103675e-02   2.2114364e-02   5.5762913e-03  -5.3748702e-02  -3.2401629e-02  -2.2559693e-02
   2.6659699e-03   2.3659546e-03   1.2070053e-02   6.9282131e-03   3.0950447e-03   8.8720704e-03   1.5214621e-02  -5.5654119e-02   2.0436769e-02   6.7752419e-02  -5.4823440e-02   8.0292559e-02  -5.9431646e-02  -1.9511082e-02  -2.0814554e-02   2.6048394e-02   6.0152648e-02  -2.0526231e-03   1.9298573e-02   7.8258446e-02   1.1675361e-02  -7.4323494e-02  -3.0175619e-02   4.0794320e-02   2.1135234e-02
   4.3228265e-03   4.5453802e-03  -1.6106210e-02   9.5496791e-03   2.6290309e-02   1.1131677e-02   6.0407950e-03   1.2747115e-02   2.1911617e-02   1.5862034e-02   4.3136294e-02  -6.6434454e-02  -8.2705649e-02   1.9595023e-01  -5.4935635e-02   9.4900887e-02   2.1336532e-01   1.1887296e-02   3.1295004e-02   9.1244336e-02   1.2102300e-01   1.4110969e-01   6.1666322e-02  -3.2164201e-01  -7.9775927e-02
  -6.7072870e-03  -1.3654842e-03   9.0752474e-03  -4.6692537e-04  -4.6877254e-02  -5.8199906e-03   1.2268631e-01  -1.7752091e-02  -1.4462006e-01   4.0757127e-02  -1.7952998e-01   2.1961355e-02   6.0613987e-02  -2.8837909e-01   2.5125724e-01   8.2086087e-02   2.2117342e-01   6.2552124e-02  -1.5618511e-01  -1.1623963e-01   1.4548572e-01  -4.5481231e-01  -3.1009784e-01  -1.3016846e-01   6.8172579e-04
   4.8959616e-03   1.6880543e-03   5.9710244e-03   5.9117217e-02   1.2102925e-02   3.5756733e-02  -1.2376985e-02  -9.7509930e-02   6.4100601e-02  -1.4814677e-02  -5.5518845e-03   4.5079712e-01   7.0802703e-02  -1.6264015e-01   6.8387383e-02  -6.3575057e-02   1.0409377e-02  -1.8909851e-01  -2.9128003e-01  -3.3035949e-01   2.0760730e-02  -3.1624584e-02  -4.2476935e-01   1.9034816e-01  -2.2015804e-01
  -5.3350081e-03   1.7585786e-02   1.7198831e-02  -1.6535924e-03   1.4597463e-02   1.0172707e-02  -5.8864769e-02  -2.6673036e-01   1.1066915e-01  -1.8554103e-01   8.9855955e-02   2.3792693e-01   1.3766498e-01   1.3486910e-01  -8.3080250e-02   2.9822811e-01  -4.1891210e-02   1.0965100e-01   2.2561871e-02  -2.5382980e-01  -3.5596298e-01   3.4392894e-01   3.0612395e-01  -8.6981429e-02   3.3866785e-01
  -7.7461122e-03   1.1130315e-03   6.3425021e-05   3.8650610e-03   9.1086189e-03   3.1271530e-02   9.0568299e-03  -3.3980989e-02  -1.2163107e-02  -4.6597212e-02  -1.6715571e-01  -4.0442555e-02  -5.2764011e-02  -2.7730525e-02   1.0626587e-01  -5.5099212e-02   8.9053617e-02  -8.2394939e-02   1.9011764e-01  -5.5213458e-02  -4.8237270e-02   3.4108356e-02   9.4520275e-02   1.3835622e-01  -2.3342825e-02
  -1.5754992e-02  -2.3886379e-02   2.2858654e-02  -3.5917376e-03   8.8596826e-03   2.8979400e-02   1.2207020e-02  -3.4419386e-02   2.4013346e-02  -5.0204612e-02  -2.4379191e-02   3.0986872e-01  -6.7531305e-03  -3.9857431e-01  -6.9840224e-02   2.1425878e-01   9.5475163e-02  -3.0836206e-01   1.3877246e-01  -3.6961577e-03  -1.0392196e-01   2.6857542e-01   2.7991096e-01   2.3222630e-01   6.5806255e-02
  -6.3214043e-03  -2.9308681e-02   2.4482366e-02  -4.7949776e-03  -6.2899145e-03   3.7011983e-02  -8.2117327e-02  -4.2710259e-02   7.5069132e-02  -5.6627162e-02  -8.9920770e-02  -5.7353261e-02   8.0955697e-02  -8.9273051e-02  -1.6500152e-01  -3.9921833e-02   3.1577608e-01  -2.6142305e-01  -2.1453879e-01   2.9063126e-01  -2.1344298e-01  -2.2111789e-01  -1.5867440e-03   1.1952739e-01   3.2216233e-01
   7.5873336e-04   2.2301805e-03  -3.0726048e-02  -1.4685270e-02   3.3813278e-02  -9.7166164e-02  -3.6308294e-02   6.1531549e-03   5.9884249e-02   2.1135422e-01  -2.2596221e-01   8.6065824e-02  -1.1324388e-01   1.4614610e-01   3.2976113e-01  -1.0608416e-01  -1.0227325e-01   2.4969670e-01  -3.6441727e-03   4.7279472e-02  -1.7545994e-01   1.0920642e-01  -1.3093637e-01  -1.0274268e-01  -1.3947709e-01
  -2.6995498e-03  -1.9518080e-03  -7.9311249e-03   1.3089980e-03  -6.0851043e-03   2.6502668e-03  -6.6458253e-03   2.0238542e-02  -1.0913716e-02  -4.6342812e-02   3.7706574e-02  -3.1158151e-02   2.6967951e-02   4.6942069e-02   6.6439851e-02   1.4991281e-02  -3.1849140e-02   6.1778127e-02  -2.7475184e-02   1.2733687e-03   2.1180660e-02   1.8882104e-03  -5.5096189e-02  -1.3625301e-02  -2.4989291e-02
   1.9995894e-03   1.9190939e-03   9.8161008e-03   6.1133693e-03  -3.1611780e-03   7.2113184e-03   1.7896479e-02  -4.0790674e-02   1.8256557e-02   6.3424181e-02  -5.0431193e-02   7.9355043e-02  -5.0624778e-02   1.1330914e-04  -3.8853831e-02   2.6339733e-02   3.9060824e-02   1.4978098e-03   1.6576456e-02   5.1832242e-02  -6.7110691e-04  -1.0411342e-01  -1.2360372e-02   2.0869749e-02   1.0642952e-02
   3.9309818e-03   5.8445319e-03  -1.5942949e-02   8.0462247e-03   2.4682371e-02   1.0335203e-02  -1.1108386e-02  -5.2229108e-03   2.2085547e-02   2.2789681e-02   3.4803258e-02  -3.4292722e-02  -5.3391825e-02   2.0552731e-01  -5.5245352e-02   1.0562392e-01   2.1998170e-01  -2.7392851e-02   2.7309927e-02   4.5026815e-02   1.2669203e-01   1.1223328e-01   3.5991192e-02  -3.1992743e-01  -4.4748238e-02
  -3.2203302e-03  -3.9050736e-03   7.2036990e-03   2.8715207e-03  -4.8776009e-02  -1.0012101e-02   1.1742540e-01  -3.0588121e-02  -1.3272409e-01   4.5218815e-02  -2.0070477e-01   2.7854939e-02   9.5250998e-02  -2.8639427e-01   2.6325390e-01   5.7240941e-02   2.3329168e-01   2.5047145e-02  -1.4649107e-01  -1.1281729e-01   8.9146827e-02  -4.5011149e-01  -3.2706797e-01  -6.7054022e-02   1.6203462e-02
   5.0772524e-03   2.4555151e-03   8.1912801e-03   6.0955863e-02   8.1455861e-03   3.3326235e-02  -3.0490787e-02  -8.9402419e-02   6.1245817e-02  -1.6857941e-04  -7.7461167e-04   4.4307462e-01   1.0522621e-01  -1.3239248e-01   5.3120170e-02  -7.9680941e-02   7.8939160e-02  -1.4523984e-01  -2.5045239e-01  -3.2116859e-01  -1.8676239e-02  -6.1213342e-03  -4.0731050e-01   1.8051574e-01  -2.6984691e-01
  -5.5950335e-03   1.7195112e-02   1.8838898e-02   3.9622564e-03  -1.3640964e-03   1.2429098e-02  -5.7909670e-02  -2.6970957e-01   1.1981503e-01  -2.0048447e-01   9.3099923e-02   2.3149572e-01   1.0821335e-01   1.3686831e-01  -5.2078829e-02   2.4417613e-01   1.9719952e-02   9.1679365e-02   1.7030442e-02  -1.7066980e-01  -3.3417586e-01   3.7858544e-01   2.8525989e-01  -6.8905304e-02   2.6660749e-01
  -6.6938917e-03   1.4464637e-03   5.0818306e-03   8.5488121e-03   2.5487051e-03   3.3263952e-02   1.9692530e-02  -3.9438067e-02   1.5431856e-03  -2.9636588e-02  -1.8363843e-01  -2.2593117e-02  -5.8895429e-02  -2.2686490e-02   7.0226602e-02  -5.3920701e-02   1.1536024e-01  -8.7325096e-02   2.0849909e-01  -2.8821267e-02  -6.0105507e-02   2.9972861e-02   7.2705289e-02   1.5065116e-01   2.0605750e-02
  -1.5778767e-02  -2.2097781e-02   2.0184623e-02  -2.8675247e-04   1.9845200e-03   2.4281815e-02   1.7587129e-02  -2.9202185e-02   1.3978459e-02  -1.9015113e-02  -5.7884430e-02   3.4378668e-01  -7.0725490e-03  -3.8779860e-01  -3.4791085e-02   2.1686533e-01   6.7329971e-02  -2.6783205e-01   1.4900126e-01   8.1821367e-03  -1.1610801e-01   2.6417308e-01   1.2983882e-01   2.6279631e-01  -2.7920903e-02
  -7.3398251e-03  -3.2018903e-02   2.3651927e-02  -4.1250198e-03  -1.2840334e-02   3.9225713e-02  -7.4678566e-02  -4.2150012e-02   8.0947475e-02  -8.1313740e-02  -7.7507266e-02  -5.8430849e-02   8.5162794e-02  -8.2954994e-02  -2.0716504e-01  -5.1928511e-02   2.9616687e-01  -2.6474439e-01  -2.0810159e-01   2.6627679e-01  -2.0977187e-01  -2.4021719e-01  -2.2693148e-02   1.0151205e-01   3.3754152e-01
  -4.1320131e-04  -1.7247635e-03  -3.2200309e-02  -1.5204409e-02   2.6978993e-02  -8.5201118e-02  -2.9972958e-02   8.0174263e-03   6.9201939e-02   2.0341263e-01  -2.4338058e-01   9.9350438e-02  -1.2510760e-01   1.7608818e-01   3.2557013e-01  -1.1144514e-01  -7.2868210e-02   2.5283385e-01  -5.6002601e-03   5.7856050e-02  -1.2775635e-01   8.6799151e-02  -1.5438898e-01  -8.9694395e-02  -1.7757961e-01
  -2.4065690e-03  -2.8987803e-03  -7.2068636e-03  -1.7951995e-03  -4.9436736e-03   4.6278505e-03  -8.4215610e-03   1.6167633e-02  -1.3097359e-02  -4.3391832e-02   3.2259216e-02  -3.6356731e-02   3.2837278e-02   4.1099177e-02   7.7165562e-02   3.2345594e-02  -1.8793108e-02   6.2546704e-02  -7.6438095e-03  -7.2516351e-03   2.2278102e-02  -9.7364597e-03  -4.6607931e-02   4.1290113e-03  -2.9199078e-02
   1.4086676e-03   1.9608193e-03   7.8918629e-03   6.1743743e-03  -1.0586544e-02   5.3104932e-03   2.0624152e-02  -2.4412283e-02   1.6295016e-02   5.5938622e-02  -4.4780648e-02   7.9877331e-02  -3.8802425e-02   2.4056061e-02  -6.2530718e-02   2.2510352e-02   2.1537140e-02   3.9576735e-03   1.3934940e-02   1.6483328e-02  -2.5462177e-02  -1.3048213e-01   1.2899460e-02   4.0739187e-03  -6.0328297e-03
   3.1959186e-03   7.1566550e-03  -1.4639786e-02   7.0519207e-03   2.4162195e-02   9.6768388e-03  -2.9967023e-02  -2.3798188e-02   2.1631839e-02   2.5160671e-02   2.9122767e-02  -5.4479747e-03  -3.0179719e-02   2.1382155e-01  -5.6840082e-02   1.0958770e-01   2.2495614e-01  -6.2926543e-02   1.7508558e-02  -1.1616757e-03   1.2092942e-01   8.6852835e-02   1.3450668e-02  -3.0582209e-01   2.9406204e-03
   1.4558544e-04  -5.9942125e-03   6.2059706e-03   5.8161501e-03  -5.0932833e-02  -1.4217312e-02   1.0769070e-01  -4.1265251e-02  -1.1533211e-01   4.5762602e-02  -2.1023144e-01   2.8715469e-02   1.2274851e-01  -2.8308665e-01   2.6385626e-01   2.7549161e-02   2.3527312e-01  -8.1703847e-03  -1.2594886e-01  -9.9330551e-02   2.7603722e-02  -4.2721435e-01  -3.2586077e-01  -4.1700432e-03   2.7651216e-02
   5.1287429e-03   3.2387841e-03   1.0414252e-02   6.0270447e-02   5.8638411e-03   3.0665454e-02  -4.5218881e-02  -7.6264694e-02   5.7090186e-02   1.3878638e-02   8.9312017e-03   4.2155975e-01   1.3404785e-01  -1.0579085e-01   4.1803783e-02  -8.9320743e-02   1.3890497e-01  -8.8816699e-02  -2.0911498e-01  -3.0753602e-01  -4.9974537e-02   1.0187150e-02  -3.8050967e-01   1.6091898e-01  -3.1727393e-01
  -5.6186369e-03   1.7242808e-02   1.9852387e-02   7.6222221e-03  -1.5781057e-02   1.3022521e-02  -5.4136433e-02  -2.6495088e-01   1.2877723e-01  -2.0935574e-01   9.2352502e-02   2.1775671e-01   8.3835505e-02   1.3326915e-01  -1.5811944e-02   1.8752842e-01   6.4423658e-02   7.3334655e-02  -4.3016161e-04  -8.5912671e-02  -2.9614122e-01   3.9307453e-01   2.5708779e-01  -5.3659828e-02   1.9673911e-01
  -5.3552405e-03   1.7496393e-03   1.0544650e-02   1.3038230e-02  -3.9031432e-03   3.4033246e-02   2.9267868e-02  -4.4897176e-02   1.5264711e-02  -1.1950687e-02  -1.9435869e-01  -7.8821278e-04  -6.6100984e-02  -2.0080586e-02   3.3170791e-02  -5.0412026e-02   1.4317363e-01  -9.3335794e-02   2.2952814e-01  -3.9209846e-03  -7.0261515e-02   2.2365997e-02   4.9105465e-02   1.5450536e-01   5.8469873e-02
  -1.5521412e-02  -1.9849806e-02   1.7272684e-02   1.8838975e-03  -4.1742479e-03   1.7922871e-02   2.1633652e-02  -2.5944211e-02   4.4673397e-03   9.6455083e-03  -8.9830286e-02   3.6777678e-01  -7.3489233e-03  -3.7142594e-01   1.0142613e-03   2.1502367e-01   3.9907135e-02  -2.2879568e-01   1.5296805e-01   2.5970686e-02  -1.3829492e-01   2.5410635e-01  -1.7795184e-02   2.8644006e-01  -1.2262022e-01
  -8.2490243e-03  -3.4307610e-02   2.2226778e-02  -3.6009564e-03  -1.9670166e-02   3.9776445e-02  -6.4175224e-02  -4.0478068e-02   8.4402196e-02  -1.0382479e-01  -6.3775358e-02  -6.0665684e-02   8.5082773e-02  -7.8236914e-02  -2.4661499e-01  -5.7670850e-02   2.6142371e-01  -2.5994002e-01  -1.9589654e-01   2.3421407e-01  -1.9690541e-01  -2.5265243e-01  -4.7177702e-02   8.3902021e-02   3.4719010e-01
  -1.4306970e-03  -5.3227230e-03  -3.3120312e-02  -1.4904356e-02   1.9893031e-02  -7.3349127e-02  -2.5726404e-02   1.0451181e-02   7.9243002e-02   1.9484025e-01  -2.5837756e-01   1.1200235e-01  -1.3398566e-01   2.0912732e-01   3.1613862e-01  -1.1803661e-01  -4.7361275e-02   2.5255992e-01  -1.2026696e-02   7.4212451e-02  -7.4890259e-02   6.8276239e-02  -1.7249308e-01  -7.5512880e-02  -2.0754503e-01
  -2.0320472e-03  -3.2530188e-03  -6.5054700e-03  -5.4856963e-03  -2.5141602e-03   5.2367833e-03  -1.0867736e-02   1.0934845e-02  -1.5822151e-02  -3.9948156e-02   2.6332752e-02  -4.3295087e-02   3.7939178e-02   3.2895749e-02   8.6261106e-02   4.5439119e-02  -1.2271697e-02   6.2326663e-02   8.6673230e-03  -1.1253273e-02   2.5671812e-02  -2.9287306e-02  -2.9864455e-02   1.8214605e-02  -3.3178160e-02
   9.9673175e-04   2.4780124e-03   6.6070583e-03   6.9971238e-03  -1.7630263e-02   3.4130272e-03   2.3019110e-02  -9.7777140e-03   1.5011150e-02   4.7138204e-02  -3.8142428e-02   8.0854789e-02  -2.6900881e-02   4.7624467e-02  -8.6180139e-02   1.5999914e-02   1.2090053e-02   4.4434379e-03   9.8033209e-03  -2.0410548e-02  -5.7763917e-02  -1.4885857e-01   3.8658345e-02  -7.0187070e-03  -2.3959164e-02
   2.1030775e-03   8.5263085e-03  -1.2282651e-02   6.5499720e-03   2.4644684e-02   9.5714430e-03  -4.9764990e-02  -4.2163152e-02   2.0654928e-02   2.3217834e-02   2.6109913e-02   1.8351663e-02  -1.4078561e-02   2.2167048e-01  -5.9952401e-02   1.0684319e-01   2.2789701e-01  -9.3098677e-02   2.7255191e-03  -4.4401199e-02   1.0562560e-01   6.7666720e-02  -4.6180847e-03  -2.7909270e-01   6.0705952e-02
   3.2184145e-03  -7.5068099e-03   6.0495357e-03   8.0316278e-03  -5.3393823e-02  -1.8067627e-02   9.4523038e-02  -4.9287350e-02  -9.3272815e-02   4.3055774e-02  -2.0764599e-01   2.3251895e-02   1.4125729e-01  -2.7888335e-01   2.5509828e-01  -6.5570004e-03   2.2679253e-01  -3.5624752e-02  -9.6311956e-02  -7.4944041e-02  -3.6227568e-02  -3.8697472e-01  -3.0746352e-01   5.6833548e-02   3.3078888e-02
   4.9972428e-03   4.0305570e-03   1.2524485e-02   5.7019536e-02   5.5418759e-03   2.7969455e-02  -5.5793807e-02  -5.8807940e-02   5.1327530e-02   2.7092174e-02   2.3038544e-02   3.8744603e-01   1.5614435e-01  -8.4362164e-02   3.5615087e-02  -9.2540020e-02   1.8757052e-01  -2.1353709e-02  -1.6901322e-01  -2.9113642e-01  -7.2668552e-02   1.6593707e-02  -3.4657505e-01   1.3292921e-01  -3.6041775e-01
  -5.3774364e-03   1.7729612e-02   2.0429066e-02   9.2028324e-03  -2.7666041e-02   1.1901667e-02  -4.8028513e-02  -2.5415337e-01   1.3762688e-01  -2.1234363e-01   8.7879937e-02   1.9803010e-01   6.4959876e-02   1.2444252e-01   2.3178962e-02   1.3143555e-01   8.9789603e-02   5.5067558e-02  -2.9001147e-02  -3.8884134e-03  -2.4420581e-01   3.8741946e-01   2.2488586e-01  -3.9807724e-02   1.3489950e-01
  -3.8308914e-03   1.9565556e-03   1.6131216e-02   1.7198018e-02  -9.6577319e-03   3.3655578e-02   3.6419230e-02  -5.0194760e-02   2.8026112e-02   4.7424128e-03  -1.9866292e-01   2.3352464e-02  -7.3229063e-02  -2.0288124e-02  -6.7753895e-04  -4.6199210e-02   1.7222014e-01  -9.9275923e-02   2.5344850e-01   1.8462322e-02  -7.7774877e-02   1.1665338e-02   2.7376208e-02   1.5205524e-01   8.9055920e-02
  -1.5017424e-02  -1.7322072e-02   1.4085263e-02   2.8475791e-03  -9.4352786e-03   9.8402531e-03   2.4090721e-02  -2.4755449e-02  -3.8326210e-03   3.4785619e-02  -1.1953503e-01   3.8156898e-01  -8.1052407e-03  -3.4955251e-01   3.7634743e-02   2.0899108e-01   1.4253032e-02  -1.9157421e-01   1.5071864e-01   4.8815346e-02  -1.7056256e-01   2.3887455e-01  -1.5660546e-01   3.0129999e-01  -2.1536949e-01
  -8.9602653e-03  -3.6077645e-02   2.0083201e-02  -3.4511398e-03  -2.6197305e-02   3.8285036e-02  -5.1008985e-02  -3.7503431e-02   8.5283064e-02  -1.2251693e-01  -4.9916002e-02  -6.4012945e-02   8.0876949e-02  -7.5667795e-02  -2.8113399e-01  -5.7823559e-02   2.1187542e-01  -2.4672155e-01  -1.7949369e-01   1.9659879e-01  -1.7423792e-01  -2.5696228e-01  -7.4156316e-02   6.8024769e-02   3.4839000e-01
  -1.9557961e-03  -7.8357004e-03  -3.3299360e-02  -1.3750579e-02   1.3794780e-02  -6.4137550e-02  -2.5086529e-02   1.2441619e-02   8.8529004e-02   1.8780891e-01  -2.6909004e-01   1.1854230e-01  -1.3676655e-01   2.4103554e-01   3.0233012e-01  -1.2743412e-01  -2.8490498e-02   2.4848441e-01  -2.6125003e-02   9.4456509e-02  -2.8244617e-02   5.3779450e-02  -1.8467658e-01  -6.3968947e-02  -2.2112115e-01
  -1.5986400e-03  -2.8748969e-03  -5.7190643e-03  -9.0693048e-03   8.1701501e-04   4.5507056e-03  -1.3441451e-02   4.6541398e-03  -1.8390892e-02  -3.6494294e-02   2.0729154e-02  -5.1351395e-02   4.1332412e-02   2.1899780e-02   9.3665255e-02   5.3101294e-02  -1.2949044e-02   6.1401224e-02   1.9489292e-02  -9.4202585e-03   2.9374253e-02  -5.3077308e-02  -8.2825795e-03   2.7419784e-02  -3.4364525e-02
   8.6795340e-04   3.4829548e-03   6.1991567e-03   8.5839836e-03  -2.2791264e-02   1.5722187e-03   2.4743830e-02   3.0743275e-04   1.4858478e-02   3.9061243e-02  -3.0659677e-02   8.1107796e-02  -1.8506636e-02   6.5159732e-02  -1.0404329e-01   9.5634733e-03   1.2102819e-02   1.7575918e-03   2.8388065e-03  -4.9427430e-02  -9.0324205e-02  -1.5570745e-01   5.8918490e-02  -1.1676056e-02  -3.7143944e-02
   6.6280965e-04   9.9761081e-03  -9.0174593e-03   6.4320804e-03   2.5929539e-02   1.0382670e-02  -6.9663252e-02  -5.9446996e-02   1.9323287e-02   1.7416103e-02   2.5488733e-02   3.5710509e-02  -5.4932071e-03   2.2956452e-01  -6.4685627e-02   9.7531828e-02   2.2815352e-01  -1.1660116e-01  -1.5889559e-02  -8.2096217e-02   8.3336381e-02   5.6619048e-02  -1.7297547e-02  -2.4000472e-01   1.2509700e-01
   5.8411761e-03  -8.3535563e-03   6.6389196e-03   9.2445074e-03  -5.6077491e-02  -2.1165536e-02   7.9069194e-02  -5.4327920e-02  -6.7578453e-02   3.7909254e-02  -1.9319433e-01   1.0635968e-02   1.4936619e-01  -2.7403760e-01   2.3924844e-01  -4.4536243e-02   2.0782026e-01  -5.6231004e-02  -5.9890403e-02  -3.9560376e-02  -9.9090476e-02  -3.3087611e-01  -2.7354621e-01   1.1467190e-01   3.0936127e-02
   4.6407057e-03   4.8008012e-03   1.4413590e-02   5.1295175e-02   7.2814892e-03   2.5401837e-02  -6.1728630e-02  -3.8007830e-02   4.3723441e-02   3.9227758e-02   4.0687716e-02   3.4238928e-01   1.7078709e-01  -6.9097826e-02   3.5229100e-02  -8.9780602e-02   2.2297156e-01   5.4850568e-02  -1.3154433e-01  -2.7354260e-01  -8.6888055e-02   1.3211718e-02  -3.0772658e-01   9.8477515e-02  -3.9715332e-01
  -4.8670571e-03   1.8611351e-02   2.0733139e-02   8.7593339e-03  -3.6216975e-02   9.1220718e-03  -4.0139681e-02  -2.3900119e-01   1.4636494e-01  -2.0984620e-01   8.0150576e-02   1.7385230e-01   5.1414408e-02   1.1103200e-01   6.2190674e-02   7.8786162e-02   9.4897668e-02   3.7162480e-02  -6.7142999e-02   7.1417114e-02  -1.8138302e-01   3.6273236e-01   1.9203864e-01  -2.5994622e-02   8.5516683e-02
  -2.2264029e-03   2.0092019e-03   2.1536828e-02   2.0925170e-02  -1.4234742e-02   3.2192378e-02   4.0069358e-02  -5.5059224e-02   3.8930604e-02   1.8805093e-02  -1.9605135e-01   4.8091801e-02  -7.9207361e-02  -2.3348827e-02  -2.7874027e-02  -4.2779077e-02   2.0180886e-01  -1.0405407e-01   2.7992943e-01   3.7180597e-02  -8.2032085e-02  -1.5424209e-03   1.0501258e-02   1.4563877e-01   1.1185725e-01
  -1.4338922e-02  -1.4767077e-02   1.0586378e-02   2.6337239e-03  -1.3733731e-02   2.6727569e-04   2.4804303e-02  -2.5488429e-02  -1.0166210e-02   5.5527200e-02  -1.4641845e-01   3.8560162e-01  -1.0066885e-02  -3.2214643e-01   7.4764515e-02   1.9947191e-01  -8.7662353e-03  -1.5602364e-01   1.4273450e-01   7.5821977e-02  -2.1154742e-01   2.1893810e-01  -2.8101900e-01   3.0594863e-01  -3.0356235e-01
  -9.3920946e-03  -3.7233711e-02   1.7157263e-02  -3.8753556e-03  -3.1871761e-02   3.4456451e-02  -3.5731892e-02  -3.3285417e-02   8.3604311e-02  -1.3600492e-01  -3.7083522e-02  -6.8327352e-02   7.2986827e-02  -7.5659671e-02  -3.0889243e-01  -5.3247124e-02   1.4876644e-01  -2.2532413e-01  -1.6058155e-01   1.5555814e-01  -1.4227402e-01  -2.5230516e-01  -1.0281135e-01   5.4945528e-02   3.3882768e-01
  -1.6838618e-03  -8.6881363e-03  -3.2679213e-02  -1.2200135e-02   9.9963640e-03  -6.0037052e-02  -2.9078430e-02   1.2339365e-02   9.5492447e-02   1.8403506e-01  -2.7433416e-01   1.1381589e-01  -1.3071951e-01   2.6720079e-01   2.8562295e-01  -1.4160220e-01  -1.6472404e-02   2.4046767e-01  -4.9764196e-02   1.1443820e-01   9.2516529e-04   4.2413858e-02  -1.8883541e-01  -5.7838401e-02  -2.1268875e-01
  -1.1406992e-03  -1.7922045e-03  -4.7615796e-03  -1.1471183e-02   4.0959977e-03   2.9334336e-03  -1.5200662e-02  -1.9938820e-03  -1.9656124e-02  -3.3848609e-02   1.6340374e-02  -5.8879380e-02   4.1765354e-02   8.8360679e-03   9.9242684e-02   5.5176577e-02  -1.9322314e-02   5.9777896e-02   2.3733037e-02  -1.7471300e-03   2.9571181e-02  -7.4405586e-02   1.3144920e-02   3.1589275e-02  -3.0604751e-02
   1.1050709e-03   4.9650304e-03   6.8020193e-03   1.1021880e-02  -2.4936898e-02  -2.3769330e-04   2.5607672e-02   3.9167592e-03   1.6307123e-02   3.3597150e-02  -2.2512319e-02   7.9706172e-02  -1.7123167e-02   7.1014556e-02  -1.1127800e-01   6.7159901e-03   1.9654019e-02  -5.0666683e-03  -7.6639224e-03  -6.0977123e-02  -1.1463786e-01  -1.4904798e-01   6.9579572e-02  -1.0931720e-02  -3.9769776e-02
  -1.0864935e-03   1.1500823e-02  -5.0445953e-03   6.5174408e-03   2.7711862e-02   1.2375816e-02  -8.8779397e-02  -7.4766690e-02   1.7891050e-02   8.3306939e-03   2.6711055e-02   4.5674232e-02  -4.1775791e-03   2.3758762e-01  -7.1026570e-02   8.1910730e-02   2.2484513e-01  -1.3244869e-01  -3.6921056e-02  -1.1214557e-01   5.7019287e-02   5.4715938e-02  -2.4143390e-02  -1.8936006e-01   1.9200219e-01
   7.8768186e-03  -8.4919084e-03   7.8346439e-03   9.2689676e-03  -5.8791585e-02  -2.3104555e-02   6.2504131e-02  -5.6192990e-02  -3.9454009e-02   3.1178863e-02  -1.6784824e-01  -9.3530628e-03   1.4623093e-01  -2.6859026e-01   2.1853377e-01  -8.5652344e-02   1.7865526e-01  -6.9323597e-02  -1.9416219e-02   6.0034667e-03  -1.5757512e-01  -2.6099034e-01  -2.2628745e-01   1.6846249e-01   2.0216890e-02
   4.0328909e-03   5.4904490e-03   1.5981731e-02   4.3318989e-02   1.0982610e-02   2.3101886e-02  -6.2853885e-02  -1.5017625e-02   3.4105782e-02   5.0098604e-02   6.0792814e-02   2.8846493e-01   1.7767372e-01  -6.0422741e-02   4.0790712e-02  -8.1855944e-02   2.4397854e-01   1.3676516e-01  -9.7736326e-02  -2.5609665e-01  -9.3287010e-02   9.6156718e-04  -2.6601547e-01   5.9958615e-02  -4.2536612e-01
  -4.1089480e-03   1.9796515e-02   2.0891673e-02   6.5232804e-03  -4.0884886e-02   4.8663955e-03  -3.1062829e-02  -2.2110305e-01   1.5489745e-01  -2.0242389e-01   6.9756431e-02   1.4684929e-01   4.2511260e-02   9.3931739e-02   9.8508591e-02   3.2045721e-02   8.0316048e-02   1.9818690e-02  -1.1264359e-01   1.3656590e-01  -1.1115735e-01   3.2106578e-01   1.6171619e-01  -1.1125279e-02   5.1296675e-02
  -6.4371286e-04   1.8598704e-03   2.6488016e-02   2.4158867e-02  -1.7321209e-02   2.9694343e-02   3.9570616e-02  -5.9107757e-02   4.7253844e-02   2.8876364e-02  -1.8625275e-01   7.1771412e-02  -8.3189408e-02  -2.8910951e-02  -4.6143267e-02  -4.1312584e-02   2.3083786e-01  -1.0675040e-01   3.0795690e-01   5.1021609e-02  -8.2886954e-02  -1.6445872e-02   4.4406673e-04   1.3750634e-01   1.2703184e-01
  -1.3589170e-02  -1.2494806e-02   6.7471778e-03   1.3911735e-03  -1.7130525e-02  -1.0293870e-02   2.3699000e-02  -2.7722435e-02  -1.3711779e-02   7.1202247e-02  -1.7006980e-01   3.8098574e-01  -1.4091618e-02  -2.8897262e-01   1.1172620e-01   1.8756871e-01  -2.8640848e-02  -1.2156216e-01   1.2982506e-01   1.0616241e-01  -2.5860317e-01   1.9477631e-01  -3.8673686e-01   2.9938655e-01  -3.8478950e-01
  -9.4819741e-03  -3.7694025e-02   1.3467614e-02  -5.0066228e-03  -3.6232894e-02   2.8145215e-02  -1.9024720e-02  -2.8121757e-02   7.9550181e-02  -1.4331753e-01  -2.6228981e-02  -7.3273811e-02   6.2057247e-02  -7.8478878e-02  -3.2855519e-01  -4.4753198e-02   7.4273011e-02  -1.9652347e-01  -1.4064441e-01   1.1309894e-01  -1.0271334e-01  -2.3850173e-01  -1.3237623e-01   4.5327720e-02   3.1681999e-01
  -4.2581164e-04  -7.5747910e-03  -3.1316875e-02  -1.1069785e-02   9.6024324e-03  -6.2882563e-02  -3.7969843e-02   8.3058426e-03   9.8808801e-02   1.8422446e-01  -2.7359391e-01   9.4020153e-02  -1.1425748e-01   2.8322375e-01   2.6772505e-01  -1.6205417e-01  -9.5681719e-03   2.2891491e-01  -8.2697292e-02   1.2856744e-01   3.7811498e-03   3.2476085e-02  -1.8164813e-01  -5.8495194e-02  -1.8010418e-01
  -7.2012366e-04  -1.9382043e-04  -3.6645572e-03  -1.1433693e-02   5.9680940e-03   9.1197948e-04  -1.5008734e-02  -7.6885208e-03  -1.8355642e-02  -3.3040317e-02   1.4029516e-02  -6.3459000e-02   3.7813375e-02  -4.0056451e-03   1.0244233e-01   5.2033967e-02  -2.7992988e-02   5.6953345e-02   2.1035050e-02   1.0340362e-02   2.1724386e-02  -8.5096971e-02   2.8674873e-02   3.1179963e-02  -2.1041296e-02
   1.7466467e-03   6.8379913e-03   8.4029317e-03   1.4369909e-02  -2.3538514e-02  -2.0186882e-03   2.5616089e-02   3.1041907e-04   1.9770389e-02   3.2191424e-02  -1.4055098e-02   7.6222153e-02  -2.5219478e-02   6.0848789e-02  -1.0486915e-01   1.0773875e-02   3.0197955e-02  -1.6206277e-02  -2.1487987e-02  -4.7674427e-02  -1.2262636e-01  -1.2885113e-01   6.8973703e-02  -7.1747173e-03  -2.7561438e-02
  -3.0747239e-03   1.3062767e-02  -6.1656269e-04   6.5725795e-03   2.9599009e-02   1.5667895e-02  -1.0621765e-01  -8.7276443e-02   1.6707017e-02  -3.4148155e-03   2.8994485e-02   4.7794624e-02  -9.2134268e-03   2.4540164e-01  -7.8826723e-02   6.0409331e-02   2.1691724e-01  -1.3998701e-01  -5.8733333e-02  -1.3307534e-01   2.9730121e-02   6.1892153e-02  -2.5213597e-02  -1.2854082e-01   2.5690589e-01
   9.2175763e-03  -7.9369960e-03   9.4577993e-03   8.0247236e-03  -6.1239868e-02  -2.3506625e-02   4.5930642e-02  -5.4768565e-02  -1.0248910e-02   2.3745483e-02  -1.3327090e-01  -3.6237413e-02   1.3172743e-01  -2.6227575e-01   1.9498355e-01  -1.2885059e-01   1.3994027e-01  -7.4673229e-02   2.2148216e-02   5.9901379e-02  -2.0842681e-01  -1.7998284e-01  -1.6823647e-01   2.1767525e-01   6.4453442e-04
   3.1674182e-03   6.0076110e-03   1.7136739e-02   3.3432469e-02   1.6335958e-02   2.1188850e-02  -5.9336653e-02   8.9246744e-03   2.2347341e-02   5.9639883e-02   8.2161040e-02   2.2810386e-01   1.7693526e-01  -5.8193607e-02   5.1916092e-02  -6.9907977e-02   2.5031521e-01   2.2070547e-01  -6.8241033e-02  -2.3978358e-01  -9.2954580e-02  -1.8486073e-02  -2.2316494e-01   2.0098451e-02  -4.4306348e-01
  -3.1502963e-03   2.1146661e-02   2.0984433e-02   2.8887724e-03  -4.1425603e-02  -5.4427803e-04  -2.1408105e-02  -2.0195245e-01   1.6300582e-01  -1.9073302e-01   5.7321089e-02   1.1860552e-01   3.7163045e-02   7.4260940e-02   1.2956482e-01  -6.8851070e-03   4.8005105e-02   3.2424038e-03  -1.6267105e-01   1.8884484e-01  -3.7296802e-02   2.6521877e-01   1.3655616e-01   5.4993489e-03   3.3066700e-02
   8.2535880e-04   1.4753459e-03   3.0748369e-02   2.6885630e-02  -1.8814081e-02   2.6209875e-02   3.4814268e-02  -6.1853047e-02   5.2522198e-02   3.4057630e-02  -1.6930977e-01   9.2989090e-02  -8.4691210e-02  -3.6206612e-02  -5.4654123e-02  -4.2485406e-02   2.5782731e-01  -1.0671901e-01   3.3575294e-01   5.8857156e-02  -8.0698770e-02  -3.2031022e-02  -2.0787629e-03   1.2951805e-01   1.3530229e-01
  -1.2889499e-02  -1.0846713e-02   2.5483158e-03  -6.1247869e-04  -1.9798416e-02  -2.1149721e-02   2.0736798e-02  -3.0793587e-02  -1.3610026e-02   8.1461406e-02  -1.9030469e-01   3.6937168e-01  -2.1055974e-02  -2.4955632e-01   1.4752097e-01   1.7465550e-01  -4.5327081e-02  -8.7248233e-02   1.1297676e-01   1.3912544e-01  -3.0814572e-01   1.6692496e-01  -4.7106417e-01   2.8101303e-01  -4.5668391e-01
  -9.2003343e-03  -3.7409165e-02   9.1326140e-03  -6.8753653e-03  -3.8960843e-02   1.9435295e-02  -1.6722391e-03  -2.2505691e-02   7.3476554e-02  -1.4403273e-01  -1.7954757e-02  -7.8204983e-02   4.8820386e-02  -8.4215849e-02  -3.3934435e-01  -3.2864780e-02  -8.5194742e-03  -1.6160659e-01  -1.2068202e-01   7.1096416e-02  -5.8360461e-02  -2.1603176e-01  -1.6214000e-01   3.9333731e-02   2.8145379e-01
   1.8142079e-03  -4.5754890e-03  -2.9380471e-02  -1.1257494e-02   1.3151339e-02  -7.3263286e-02  -5.1068975e-02  -9.9270564e-04   9.7820371e-02   1.8772413e-01  -2.6697801e-01   5.7832757e-02  -8.7656762e-02   2.8584895e-01   2.5011571e-01  -1.8887916e-01  -5.2413571e-03   2.1501951e-01  -1.2217695e-01   1.3110453e-01  -2.4018619e-02   2.1884006e-02  -1.5970055e-01  -6.5849476e-02  -1.2502623e-01
  -4.2048715e-04   1.6366297e-03  -2.5955373e-03  -7.8932375e-03   5.1047715e-03  -1.0243225e-03  -1.1915080e-02  -1.0753565e-02  -1.3654462e-02  -3.5043718e-02   1.4517948e-02  -6.2680767e-02   2.8290898e-02  -1.3205758e-02   1.0230523e-01   4.4120918e-02  -3.4280080e-02   5.1894171e-02   1.1897211e-02   2.4210086e-02   2.2119159e-03  -7.7691428e-02   3.3225346e-02   2.6994338e-02  -6.6852214e-03
   2.7702895e-03   8.9156460e-03   1.0804618e-02   1.8492201e-02  -1.8749919e-02  -3.7160902e-03   2.4936343e-02  -9.9344476e-03   2.5392903e-02   3.5619929e-02  -5.8304788e-03   7.0683824e-02  -4.3267267e-02   3.2941120e-02  -8.4285289e-02   2.3648468e-02   3.7992713e-02  -3.0671695e-02  -3.7352520e-02  -6.7310805e-03  -1.0867294e-01  -9.7264805e-02   5.8045431e-02  -3.4881614e-03   9.2119924e-04
  -5.1968716e-03   1.4590442e-02   3.9646578e-03   6.3313107e-03   3.1133790e-02   2.0178148e-02  -1.2109557e-01  -9.6226523e-02   1.6207190e-02  -1.7213678e-02   3.1378970e-02   4.2169637e-02  -1.9034511e-02   2.5224841e-01  -8.7765881e-02   3.3697887e-02   2.0324153e-01  -1.3890396e-01  -7.9519788e-02  -1.4411345e-01   4.3336136e-03   7.6954295e-02  -2.1069120e-02  -5.9557738e-02   3.1516826e-01
   9.7968314e-03  -6.7697236e-03   1.1284105e-02   5.5465211e-03  -6.3015253e-02  -2.2077573e-02   3.0275245e-02  -4.9971276e-02   1.8557483e-02   1.6542791e-02  -9.1730952e-02  -6.8797803e-02   1.0657427e-01  -2.5442461e-01   1.7038032e-01  -1.7263920e-01   9.2692664e-02  -7.2512353e-02   6.1829095e-02   1.1924993e-01  -2.4887396e-01  -9.1136168e-02  -1.0221469e-01   2.6197925e-01  -2.7144521e-02
   2.0606453e-03   6.2268377e-03   1.7791960e-02   2.2082266e-02   2.2828182e-02   1.9764068e-02  -5.1678482e-02   3.2587097e-02   8.3437896e-03   6.7961297e-02   1.0361599e-01   1.6401122e-01   1.6911329e-01  -6.1731267e-02   6.7718877e-02  -5.5346941e-02   2.4254041e-01   3.0244606e-01  -4.3341702e-02  -2.2511075e-01  -8.7303714e-02  -4.2803354e-02  -1.8044179e-01  -1.8208803e-02  -4.4847790e-01
  -2.0620838e-03   2.2480955e-02   2.1036832e-02  -1.6123829e-03  -3.7929624e-02  -6.6519098e-03  -1.1787006e-02  -1.8291154e-01   1.7031068e-01  -1.7545156e-01   4.3406654e-02   9.0533900e-02   3.4012308e-02   5.3323327e-02   1.5309260e-01  -3.6791807e-02   1.1673216e-03  -1.2266642e-02  -2.1383359e-01   2.2641187e-01   3.6327298e-02   1.9852232e-01   1.1837368e-01   2.4084882e-02   2.9776792e-02
   2.1041585e-03   8.4460767e-04   3.4119349e-02   2.9134087e-02  -1.8837953e-02   2.1794199e-02   2.6293529e-02  -6.2731792e-02   5.4564565e-02   3.4075370e-02  -1.4566955e-01   1.1073028e-01  -8.3696360e-02  -4.4090631e-02  -5.4161635e-02  -4.6440466e-02   2.8097188e-01  -1.0366814e-01   3.6074907e-01   5.9865781e-02  -7.6242247e-02  -4.7146185e-02   2.3400712e-03   1.2286756e-01   1.3779277e-01
  -1.2360766e-02  -1.0157944e-02  -2.0171986e-03  -3.0164141e-03  -2.1976753e-02  -3.1542232e-02   1.5864295e-02  -3.3885390e-02  -9.0297125e-03   8.6370453e-02  -2.0719747e-01   3.5271194e-01  -3.1718492e-02  -2.0323182e-01   1.8093122e-01   1.6216897e-01  -5.9256599e-02  -5.1901747e-02   9.3193591e-02   1.7410265e-01  -3.5612864e-01   1.3598703e-01  -5.3303410e-01   2.5059318e-01  -5.1677484e-01
  -8.5653626e-03  -3.6385005e-02   4.3796044e-03  -9.3787025e-03  -3.9919193e-02   8.7234703e-03   1.5460730e-02  -1.7055585e-02   6.5903647e-02  -1.3837789e-01  -1.2408907e-02  -8.2030122e-02   3.3966329e-02  -9.2728615e-02  -3.4105665e-01  -1.7603591e-02  -9.5677960e-02  -1.2230363e-01  -1.0102324e-01   3.1357969e-02  -1.2877282e-02  -1.8599501e-01  -1.9148938e-01   3.6575106e-02   2.3264759e-01
   4.7864289e-03  -2.3183763e-04  -2.7156659e-02  -1.3389519e-02   2.0288788e-02  -9.0040190e-02  -6.6645289e-02  -1.5632438e-02   9.2907169e-02   1.9249215e-01  -2.5515292e-01   7.3694133e-03  -5.3577054e-02   2.7403451e-01   2.3367063e-01  -2.1997618e-01  -1.4873051e-03   2.0082273e-01  -1.6306788e-01   1.1776279e-01  -8.0740721e-02   8.7759980e-03  -1.2121098e-01  -7.8606878e-02  -5.2725750e-02
  -3.2313100e-04   3.4076839e-03  -1.7953286e-03  -4.5291589e-04   7.5525335e-04  -2.6002800e-03  -5.6097453e-03  -9.7215989e-03  -5.6832811e-03  -4.0421105e-02   1.8218012e-02  -5.5179080e-02   1.2865681e-02  -1.5362857e-02   9.7826107e-02   3.1826640e-02  -3.3251570e-02   4.3357644e-02  -1.9439381e-03   3.6513693e-02  -2.9879860e-02  -4.7958920e-02   2.4075342e-02   2.0144630e-02   9.5309614e-03
   4.0815195e-03   1.0919983e-02   1.3608128e-02   2.2901084e-02  -1.1349232e-02  -5.2441705e-03   2.3809817e-02  -2.4959672e-02   3.2784386e-02   4.3810814e-02   1.5324446e-03   6.3335253e-02  -6.9043499e-02  -1.0746173e-02  -5.1831851e-02   4.4744805e-02   3.7903525e-02  -4.6226846e-02  -5.2987771e-02   5.8157214e-02  -7.1588371e-02  -5.8608256e-02   4.0172180e-02  -2.8753168e-03   4.3313510e-02
  -7.3116687e-03   1.5981924e-02   8.3547663e-03   5.5153092e-03   3.1820428e-02   2.5585497e-02  -1.3255968e-01  -1.0102997e-01   1.6892262e-02  -3.2550406e-02   3.2797781e-02   2.9460279e-02  -3.1508755e-02   2.5694726e-01  -9.7323111e-02   2.7505099e-03   1.8276908e-01  -1.2924942e-01  -9.7362747e-02  -1.4519612e-01  -1.6724299e-02   9.7623733e-02  -1.2742719e-02   1.4908649e-02   3.6229695e-01
   9.5997673e-03  -5.1376455e-03   1.3038074e-02   1.9881095e-03  -6.3585771e-02  -1.8672023e-02   1.6207331e-02  -4.1719197e-02   4.5354344e-02   1.0571096e-02  -4.5976595e-02  -1.0506392e-01   7.2368043e-02  -2.4392857e-01   1.4625399e-01  -2.1501931e-01   3.8386193e-02  -6.3581473e-02   9.6843160e-02   1.8024695e-01  -2.7685691e-01   1.6613616e-03  -3.1246471e-02   3.0101029e-01  -6.1481814e-02
   7.5285886e-04   5.9913648e-03   1.7863678e-02   9.8015047e-03   2.9758106e-02   1.8912648e-02  -4.0690804e-02   5.4826775e-02  -8.0083686e-03   7.5381865e-02   1.2411557e-01   9.9073494e-02   1.5510674e-01  -6.9886124e-02   8.6855733e-02  -3.9775091e-02   2.2199803e-01   3.7736380e-01  -2.2975173e-02  -2.1199824e-01  -7.7936442e-02  -6.9128550e-02  -1.3856632e-01  -5.2086612e-02  -4.4015385e-01
  -9.3570650e-04   2.3585615e-02   2.1018240e-02  -6.3447407e-03  -3.0827974e-02  -1.2876602e-02  -2.7969032e-03  -1.6521780e-01   1.7623152e-01  -1.5721291e-01   2.8430666e-02   6.3755202e-02   3.1555590e-02   3.2540506e-02   1.6725900e-01  -5.7244082e-02  -5.5936572e-02  -2.6249020e-02  -2.6225240e-01   2.4840511e-01   1.0591718e-01   1.2463160e-01   1.0792334e-01   4.4288310e-02   3.8648499e-02
   3.1348493e-03  -1.3321143e-05   3.6439035e-02   3.0956995e-02  -1.7741415e-02   1.6523016e-02   1.5114794e-02  -6.1154576e-02   5.3542456e-02   2.9408819e-02  -1.1628179e-01   1.2445158e-01  -8.0701083e-02  -5.1143672e-02  -4.7014326e-02  -5.2758010e-02   2.9818774e-01  -9.7691388e-02   3.7963084e-01   5.3781739e-02  -7.0514417e-02  -6.0615990e-02   1.1913337e-02   1.1786481e-01   1.3583304e-01
  -1.2102125e-02  -1.0711351e-02  -6.9378501e-03  -5.4175263e-03  -2.3899464e-02  -4.0807869e-02   8.9597764e-03  -3.6176196e-02   7.3723765e-04   8.6468269e-02  -2.2108564e-01   3.3294560e-01  -4.6583586e-02  -1.4929320e-01   2.1065541e-01   1.5134520e-01  -7.1246077e-02  -1.4245990e-02   7.1359284e-02   2.1049946e-01  -3.9858626e-01   1.0260857e-01  -5.7328769e-01   2.0824197e-01  -5.6239084e-01
  -7.6556378e-03  -3.4703698e-02  -4.5454173e-04  -1.2258785e-02  -3.9182313e-02  -3.2125719e-03   3.1445394e-02  -1.2427226e-02   5.7489611e-02  -1.2727983e-01  -9.2272858e-03  -8.3117832e-02   1.8033690e-02  -1.0357230e-01  -3.3403461e-01   1.6601812e-03  -1.8251885e-01  -8.0696500e-02  -8.1266362e-02  -4.2568324e-03   2.9570861e-02  -1.5004837e-01  -2.1997942e-01   3.6119390e-02   1.7115508e-01
   7.9884258e-03   4.4628267e-03  -2.5048449e-02  -1.7498554e-02   2.9617301e-02  -1.1016478e-01  -8.2028719e-02  -3.3887353e-02   8.5624056e-02   1.9540717e-01  -2.3923267e-01  -5.1392200e-02  -1.7231991e-02   2.4976976e-01   2.1848910e-01  -2.5086037e-01   2.1757743e-03   1.8897241e-01  -1.9846526e-01   8.7372486e-02  -1.5770962e-01  -7.7808018e-03  -6.7858191e-02  -9.4712035e-02   2.8541036e-02
  -4.7759197e-04   4.8742886e-03  -1.4700179e-03   1.0193890e-02  -6.7932406e-03  -3.8016186e-03   3.2026327e-03  -3.9633682e-03   4.1830628e-03  -4.8959277e-02   2.4963482e-02  -4.1470858e-02  -7.2954796e-03  -8.4956989e-03   8.8535728e-02   1.5802132e-02  -2.1186140e-02   3.0579681e-02  -1.7165036e-02   4.3809515e-02  -7.1342408e-02   2.7471765e-03   2.3167648e-03   1.2133371e-02   2.3317145e-02
   5.5057405e-03   1.2506871e-02   1.6228929e-02   2.6691787e-02  -2.6182177e-03  -6.5138056e-03   2.2470960e-02  -4.1784852e-02   4.0855868e-02   5.5694758e-02   7.4494187e-03   5.4431688e-02  -9.7470793e-02  -6.3979057e-02  -1.2692982e-02   7.0389180e-02   2.7077209e-02  -5.9626994e-02  -6.5502376e-02   1.3595530e-01  -1.5984684e-02  -1.9058649e-02   2.0575991e-02  -7.5325805e-03   9.3064616e-02
  -9.2431427e-03   1.7112592e-02   1.2180926e-02   3.8564683e-03   3.1146263e-02   3.1301208e-02  -1.3978680e-01  -1.0132830e-01   1.9297080e-02  -4.9091149e-02   3.2155175e-02   1.0888173e-02  -4.4074821e-02   2.5788532e-01  -1.0677740e-01  -3.1103704e-02   1.5472030e-01  -1.1146334e-01  -1.1030902e-01  -1.3691262e-01  -3.1563708e-02   1.2068586e-01  -1.6789448e-03   9.1489269e-02   3.9418661e-01
   8.6690333e-03  -3.2469680e-03   1.4397789e-02  -2.3744557e-03  -6.2289079e-02  -1.3350793e-02   4.1040709e-03  -2.9926725e-02   6.8393186e-02   6.8429842e-03   9.0776900e-04  -1.4231977e-01   3.1505582e-02  -2.2930363e-01   1.2384088e-01  -2.5348227e-01  -2.0911034e-02  -4.9188646e-02   1.2474194e-01   2.3839813e-01  -2.9108819e-01   9.4007689e-02   4.1491481e-02   3.3411055e-01  -9.9666545e-02
  -6.9249772e-04   5.1178282e-03   1.7268392e-02  -2.8119175e-03   3.6261822e-02   1.8706114e-02  -2.7449591e-02   7.4661828e-02  -2.6829453e-02   8.2445730e-02   1.4285582e-01   3.6258013e-02   1.3609273e-01  -8.1130559e-02   1.0758816e-01  -2.4895354e-02   1.9073494e-01   4.4060548e-01  -6.7667670e-03  -1.9968763e-01  -6.6491897e-02  -9.4215210e-02  -9.7666629e-02  -7.8875208e-02  -4.1700980e-01
   1.2133593e-04   2.4228031e-02   2.0847200e-02  -1.0609553e-02  -2.0875272e-02  -1.8543613e-02   4.9987295e-03  -1.5000845e-01   1.7994778e-01  -1.3656142e-01   1.2601178e-02   3.8995926e-02   2.8249142e-02   1.3356112e-02   1.7075845e-01  -6.8662709e-02  -1.1819185e-01  -3.8050504e-02  -3.0365436e-01   2.5500592e-01   1.6792092e-01   4.7347844e-02   1.0473206e-01   6.5207011e-02   5.5450815e-02
   3.8812381e-03  -1.0445261e-03   3.7580855e-02   3.2399492e-02  -1.6074316e-02   1.0512482e-02   2.9538920e-03  -5.6575479e-02   4.9962419e-02   2.1376666e-02  -8.2697421e-02   1.3411121e-01  -7.6673820e-02  -5.5830669e-02  -3.7024234e-02  -6.0459856e-02   3.0714201e-01  -8.9225185e-02   3.8847036e-01   4.1116763e-02  -6.4489019e-02  -7.1402179e-02   2.3942856e-02   1.1380431e-01   1.3076600e-01
  -1.2171162e-02  -1.2692126e-02  -1.2174560e-02  -7.4397712e-03  -2.5713790e-02  -4.8539282e-02  -2.0610802e-04  -3.7018285e-02   1.6175485e-02   8.2767638e-02  -2.3255206e-01   3.1166065e-01  -6.5789514e-02  -8.7219975e-02   2.3544761e-01   1.4295914e-01  -8.2344561e-02   2.6963634e-02   4.8143458e-02   2.4756834e-01  -4.3218573e-01   6.7412010e-02  -5.9372582e-01   1.5443289e-01  -5.9063573e-01
  -6.6170880e-03  -3.2535535e-02  -4.9312275e-03  -1.5094788e-02  -3.7039721e-02  -1.5183853e-02   4.5289660e-02  -9.2232547e-03   4.8974561e-02  -1.1235270e-01  -7.5233567e-03  -7.9281392e-02   1.3561660e-03  -1.1593931e-01  -3.1909292e-01   2.6266159e-02  -2.6373982e-01  -3.9124005e-02  -6.0357345e-02  -3.3694171e-02   6.4696862e-02  -1.1033546e-01  -2.4739896e-01   3.6556943e-02   9.8535043e-02
   1.0717603e-02   8.2002477e-03  -2.3531254e-02  -2.2844151e-02   3.8837949e-02  -1.2893424e-01  -9.3924201e-02  -5.2149671e-02   7.8467463e-02   1.9286255e-01  -2.2061092e-01  -1.0904599e-01   1.3937599e-02   2.1821752e-01   2.0396212e-01  -2.7527988e-01   4.4546703e-03   1.8214252e-01  -2.2075613e-01   4.3232072e-02  -2.3937161e-01  -2.7107381e-02  -6.0455036e-03  -1.1177543e-01   1.0848189e-01
  -8.7874875e-04   5.8331386e-03  -1.6883897e-03   2.2052826e-02  -1.6030382e-02  -4.7531481e-03   1.2663321e-02   5.8500463e-03   1.3472291e-02  -5.9403240e-02   3.3691788e-02  -2.4239215e-02  -2.9106508e-02   6.8292581e-03   7.5121299e-02  -2.3839655e-03   2.7743492e-03   1.4170826e-02  -2.8823734e-02   4.3247622e-02  -1.1431707e-01   6.5962009e-02  -2.6527107e-02   4.8706727e-03   3.0136799e-02
   6.7863391e-03   1.3300116e-02   1.7957630e-02   2.8627126e-02   5.7956992e-03  -7.4216680e-03   2.1113330e-02  -5.6584052e-02   4.7879733e-02   6.9119311e-02   1.1472373e-02   4.4219169e-02  -1.2118404e-01  -1.1640395e-01   2.5411252e-02   9.4095024e-02   6.0424076e-03  -6.7143803e-02  -7.2029028e-02   2.0895796e-01   4.7470410e-02   1.4049553e-02   5.3278346e-03  -1.8291880e-02   1.3987889e-01
  -1.0785260e-02   1.7845305e-02   1.5060776e-02   1.1213690e-03   2.8593228e-02   3.6462842e-02  -1.4197475e-01  -9.7042962e-02   2.3960517e-02  -6.6780340e-02   2.8403267e-02  -1.1784684e-02  -5.3912650e-02   2.5301734e-01  -1.1524328e-01  -6.6138932e-02   1.1877611e-01  -8.6406573e-02  -1.1645694e-01  -1.2040500e-01  -3.8952654e-02   1.4223061e-01   1.0345280e-02   1.6614073e-01   4.0731331e-01
   7.1034408e-03  -1.3482085e-03   1.5014097e-02  -7.1364978e-03  -5.8352614e-02  -6.4131696e-03  -5.9324188e-03  -1.4512281e-02   8.5796617e-02   6.2472581e-03   4.5637704e-02  -1.7711235e-01  -1.2987730e-02  -2.0883255e-01   1.0396172e-01  -2.8505866e-01  -8.2376931e-02  -3.1255897e-02   1.4348025e-01   2.8880173e-01  -2.9096160e-01   1.8116940e-01   1.1270234e-01   3.6009288e-01  -1.3809877e-01
  -2.1915467e-03   3.4025288e-03   1.5919652e-02  -1.5119089e-02   4.1343707e-02   1.9206753e-02  -1.3233465e-02   9.1330652e-02  -4.8266140e-02   8.9921403e-02   1.5935320e-01  -2.1490418e-02   1.1343084e-01  -9.3668039e-02   1.2785982e-01  -1.2406679e-02   1.5138223e-01   4.8727220e-01   5.9256608e-03  -1.8667827e-01  -5.4491281e-02  -1.1460354e-01  -5.7281407e-02  -9.6333977e-02  -3.7836895e-01
   9.9028868e-04   2.4173805e-02   2.0403189e-02  -1.3687791e-02  -9.1141803e-03  -2.2918661e-02   1.1096519e-02  -1.3835243e-01   1.8036981e-01  -1.1393460e-01  -4.1251285e-03   1.6514610e-02   2.2592572e-02  -2.8789313e-03   1.6285605e-01  -7.2341126e-02  -1.7985133e-01  -4.6822672e-02  -3.3348844e-01   2.4744390e-01   2.1918716e-01  -2.9518391e-02   1.0701407e-01   8.5409911e-02   7.4879795e-02
   4.3321335e-03  -2.1577109e-03   3.7454324e-02   3.3453306e-02  -1.4539845e-02   3.9397394e-03  -8.0448345e-03  -4.8584700e-02   4.4664633e-02   1.2182443e-02  -4.7143641e-02   1.4012580e-01  -7.2918570e-02  -5.6710314e-02  -2.9188761e-02  -6.8037010e-02   3.0528197e-01  -7.8926937e-02   3.8296359e-01   2.3316657e-02  -5.8875885e-02  -7.8793162e-02   3.5247856e-02   1.0894043e-01   1.2378795e-01
  -1.2569821e-02  -1.6155081e-02  -1.7652944e-02  -8.8081644e-03  -2.7415027e-02  -5.4713019e-02  -1.1982798e-02  -3.6106095e-02   3.7473797e-02   7.6692680e-02  -2.4239600e-01   2.8981045e-01  -8.9043608e-02  -1.6912556e-02   2.5423807e-01   1.3713835e-01  -9.3678985e-02   7.2858743e-02   2.3966145e-02   2.8418007e-01  -4.5473196e-01   3.0886797e-02  -5.9700660e-01   9.0021755e-02  -5.9844454e-01
  -5.6612839e-03  -3.0137001e-02  -8.5258732e-03  -1.7312357e-02  -3.3975297e-02  -2.5615379e-02   5.5920343e-02  -7.9123319e-03   4.1093573e-02  -9.5818342e-02  -5.9252625e-03  -6.7879585e-02  -1.5904228e-02  -1.2863276e-01  -2.9741102e-01   5.8219870e-02  -3.3359451e-01  -9.5621228e-05  -3.6799461e-02  -5.4593469e-02   8.8407383e-02  -6.9430472e-02  -2.7378663e-01   3.6121564e-02   1.7113155e-02
   1.2185690e-02   9.6222504e-03  -2.3048722e-02  -2.7955444e-02   4.5202589e-02  -1.4072206e-01  -9.8940847e-02  -6.5447251e-02   7.4266752e-02   1.8154493e-01  -2.0076792e-01  -1.5416880e-01   3.1225097e-02   1.8695694e-01   1.8901556e-01  -2.8660846e-01   2.8588422e-03   1.8221451e-01  -2.2302618e-01  -6.3513884e-03  -3.0459166e-01  -4.6491584e-02   5.3021501e-02  -1.2732554e-01   1.7596108e-01
  -1.4592214e-03   6.0734471e-03  -2.3282670e-03   3.1970993e-02  -2.4411967e-02  -5.4759438e-03   1.9968376e-02   1.7629917e-02   1.9202559e-02  -6.9404557e-02   4.2234178e-02  -7.8951942e-03  -4.7648112e-02   2.7068534e-02   5.9872536e-02  -1.9627180e-02   3.5283442e-02  -3.1228167e-03  -3.0908457e-02   3.3297121e-02  -1.4701338e-01   1.2614308e-01  -5.3166244e-02   4.7612744e-04   2.6617507e-02
   7.5981538e-03   1.2934760e-02   1.8070739e-02   2.7387706e-02   1.2038078e-02  -7.7989387e-03   1.9904298e-02  -6.5118188e-02   5.1815327e-02   8.0925157e-02   1.3313115e-02   3.3110975e-02  -1.3186241e-01  -1.5468308e-01   5.3090032e-02   1.0777522e-01  -2.1071545e-02  -6.5311480e-02  -7.0535870e-02   2.5531503e-01   1.0330123e-01   3.3334871e-02   3.5909251e-05  -3.4316511e-02   1.7113456e-01
  -1.1708771e-02   1.8040661e-02   1.6622452e-02  -2.8640533e-03   2.3638508e-02   3.9950294e-02  -1.3833188e-01  -8.8401735e-02   3.1400502e-02  -8.5919692e-02   2.0614598e-02  -3.6298201e-02  -5.8119292e-02   2.3989899e-01  -1.2172444e-01  -1.0019481e-01   7.5230432e-02  -5.5387291e-02  -1.1403982e-01  -9.7239915e-02  -3.8358841e-02   1.5795056e-01   2.1307641e-02   2.3419328e-01   3.9888378e-01
   5.0506951e-03   2.7992357e-04   1.4539357e-02  -1.1756259e-02  -5.0945488e-02   1.6037554e-03  -1.4019598e-02   4.5975580e-03   9.5595874e-02   9.3697351e-03   8.4844758e-02  -2.0527263e-01  -5.7669700e-02  -1.8072844e-01   8.6837357e-02  -3.0638444e-01  -1.4231202e-01  -1.2321912e-02   1.5142434e-01   3.2643682e-01  -2.7639984e-01   2.5832236e-01   1.7897616e-01   3.7706193e-01  -1.7251404e-01
  -3.6443263e-03   6.2829796e-04   1.3724125e-02  -2.6465363e-02   4.3911179e-02   2.0473219e-02   5.4924583e-04   1.0433707e-01  -7.2490953e-02   9.8788718e-02   1.7350020e-01  -7.1352477e-02   8.8561998e-02  -1.0554917e-01   1.4539141e-01  -3.8891211e-03   1.0699757e-01   5.1261186e-01   1.5965020e-02  -1.7069935e-01  -4.3197971e-02  -1.2680894e-01  -1.6412861e-02  -1.0283712e-01  -3.2395504e-01
   1.5465480e-03   2.3204520e-02   1.9542749e-02  -1.4882935e-02   3.1752405e-03  -2.5248607e-02   1.5083902e-02  -1.3127887e-01   1.7612665e-01  -8.9667447e-02  -2.2057660e-02  -3.9387152e-03   1.3194174e-02  -1.5022351e-02   1.4338275e-01  -7.0407760e-02  -2.3477508e-01  -5.1559715e-02  -3.4706357e-01   2.2793648e-01   2.5708232e-01  -1.0224307e-01   1.1167230e-01   1.0300303e-01   9.1016446e-02
   4.5053861e-03  -3.2246589e-03   3.6007174e-02   3.4003294e-02  -1.3924763e-02  -2.9389649e-03  -1.5418852e-02  -3.7014128e-02   3.8788607e-02   4.9132872e-03  -1.2551657e-02   1.4325684e-01  -7.0852348e-02  -5.2664122e-02  -2.9275117e-02  -7.3506142e-02   2.8988224e-01  -6.7484108e-02   3.5876391e-01   2.8171355e-03  -5.3948821e-02  -8.2593008e-02   4.2679376e-02   1.0057013e-01   1.1583765e-01
  -1.3240051e-02  -2.1015848e-02  -2.3263136e-02  -9.4098272e-03  -2.8821300e-02  -5.9749048e-02  -2.6815130e-02  -3.3585886e-02   6.4509423e-02   6.9958095e-02  -2.5160210e-01   2.6756071e-01  -1.1563019e-01   6.1142169e-02   2.6622201e-01   1.3331166e-01  -1.0635577e-01   1.2444674e-01  -9.7145985e-04   3.1858017e-01  -4.6556195e-01  -6.7461469e-03  -5.8600574e-01   1.6263420e-02  -5.8271404e-01
  -5.0531540e-03  -2.7833656e-02  -1.0651190e-02  -1.8213205e-02  -3.0623945e-02  -3.2637153e-02   6.2149973e-02  -8.7690385e-03   3.4466614e-02  -8.0361858e-02  -2.6595507e-03  -4.6045110e-02  -3.3620024e-02  -1.4009208e-01  -2.7040929e-01   1.0005617e-01  -3.8612034e-01   3.3784146e-02  -8.9715306e-03  -6.4261987e-02   9.6967203e-02  -3.0317789e-02  -2.9935226e-01   3.2850282e-02  -7.0042776e-02
   1.1683606e-02   7.6629597e-03  -2.3863485e-02  -3.0917153e-02   4.6168378e-02  -1.4010309e-01  -9.4285834e-02  -6.8499082e-02   7.5356652e-02   1.5928568e-01  -1.8113786e-01  -1.7553815e-01   2.6339574e-02   1.6443883e-01   1.7238578e-01  -2.7966778e-01  -5.1739831e-03   1.8946209e-01  -2.0069676e-01  -4.8856801e-02  -3.2955106e-01  -6.1327511e-02   9.4811743e-02  -1.3886755e-01   2.2042596e-01
  -2.0970854e-03   5.3432521e-03  -3.0862318e-03   3.6197398e-02  -2.8887664e-02  -5.6624870e-03   2.1951577e-02   2.8144015e-02   1.8741242e-02  -7.5785004e-02   4.7449666e-02   2.4538988e-03  -5.6968946e-02   4.6116687e-02   4.6772026e-02  -3.1245780e-02   6.8457527e-02  -1.6260143e-02  -1.7564505e-02   1.4512194e-02  -1.5579104e-01   1.6289075e-01  -6.6594515e-02   8.4910870e-04   1.1866133e-02
   7.5888798e-03   1.1120551e-02   1.5987956e-02   2.1952466e-02   1.4276025e-02  -7.3611635e-03   1.9012944e-02  -6.3387790e-02   5.0843602e-02   8.7311589e-02   1.2826112e-02   2.1933455e-02  -1.2219471e-01  -1.6476734e-01   6.0819926e-02   1.0376081e-01  -4.7306971e-02  -5.1807654e-02  -6.0611295e-02   2.5345720e-01   1.3409226e-01   3.2821347e-02   8.4117470e-03  -5.3101691e-02   1.7429137e-01
  -1.1768790e-02   1.7565545e-02   1.6520702e-02  -8.1935469e-03   1.5749631e-02   4.0419484e-02  -1.2807581e-01  -7.5936856e-02   4.2093385e-02  -1.0720298e-01   8.0509115e-03  -5.9965398e-02  -5.3865713e-02   2.1576972e-01  -1.2515622e-01  -1.3064041e-01   2.5076047e-02  -2.0176943e-02  -1.0148669e-01  -6.9264672e-02  -3.0001466e-02   1.6345530e-01   2.9026274e-02   2.9042400e-01   3.6694486e-01
   2.6976224e-03   1.3447633e-03   1.2655036e-02  -1.5550313e-02  -3.9251633e-02   9.9520962e-03  -2.0428016e-02   2.7476832e-02   9.5795194e-02   1.6342799e-02   1.1517638e-01  -2.2197738e-01  -9.8873765e-02  -1.4325716e-01   7.1919455e-02  -3.1375442e-01  -1.9610382e-01   4.5176898e-03   1.4734120e-01   3.4642217e-01  -2.4775000e-01   3.2079213e-01   2.3676519e-01   3.8229448e-01  -1.9825670e-01
