   2.3420529e-02   3.2996717e-02
  -3.6702211e-03  -3.1582307e-02
  -4.6055515e-03  -3.1177164e-02
  -1.5954473e-02  -7.6659785e-02
   1.3484769e-03  -1.8211340e-02
  -1.6832483e-02  -1.7052440e-02
  -5.9922158e-03  -2.1529436e-03
  -2.4819833e-02   1.6726436e-02
   5.7144358e-02   6.7009274e-02
   1.1395241e-01  -5.1312303e-02
   1.5909610e-02   2.3173826e-02
  -3.8548133e-03  -2.4005316e-02
  -1.2287277e-03  -1.9943500e-02
  -3.9664960e-03  -1.8080737e-02
  -2.7221167e-03  -8.0547605e-03
  -8.0141293e-03  -1.0072262e-02
  -7.7872058e-03  -1.4252597e-03
  -1.4248490e-02   1.1362262e-02
   4.2003817e-02   5.1040101e-02
   8.2332524e-02  -3.2512318e-02
   9.4024480e-03   1.5710890e-02
  -4.0177307e-03  -1.9373964e-02
   9.7313670e-04  -1.0746207e-02
   2.6035430e-03   1.4004689e-02
  -3.4547663e-03  -8.2738064e-04
  -2.6967574e-03  -4.8676433e-03
  -8.9866918e-03  -1.1449065e-03
  -5.9687922e-03   7.1326962e-03
   2.9084398e-02   3.6284705e-02
   5.5762114e-02  -1.7318845e-02
   4.1727322e-03   1.0182594e-02
  -4.0218964e-03  -1.6427623e-02
   2.0515385e-03  -4.1884208e-03
   5.1790358e-03   2.5973693e-02
  -2.2385999e-03   3.6278359e-03
  -4.9204989e-07  -1.1509167e-03
  -9.5747834e-03  -1.1490935e-03
   1.4735612e-04   4.0501318e-03
   1.8364137e-02   2.3041330e-02
   3.4265712e-02  -5.5508675e-03
   2.8431072e-04   6.1614812e-03
  -3.8122116e-03  -1.4304950e-02
   2.1716052e-03  -4.4834064e-04
   5.1432771e-03   2.4513344e-02
  -2.5866847e-04   5.7358567e-03
   8.7844108e-04   1.2265242e-03
  -9.5702244e-03  -1.3223697e-03
   4.2804395e-03   2.0223327e-03
   9.7559467e-03   1.1544815e-02
   1.7679418e-02   3.0591336e-03
  -2.3577092e-03   3.2716078e-03
  -3.4010004e-03  -1.2528062e-02
   1.5764683e-03   6.7810408e-04
   3.7097918e-03   1.5796425e-02
   1.6081740e-03   6.0598609e-03
   6.1975421e-04   2.3841598e-03
  -9.0219857e-03  -1.5986093e-03
   6.6569468e-03   8.6450382e-04
   3.1149005e-03   1.9572875e-03
   5.6734967e-03   8.8485256e-03
  -3.9487853e-03   1.2103848e-03
  -2.8471297e-03  -1.0933335e-02
   5.4560417e-04  -3.0926739e-04
   1.8333214e-03   4.8553098e-03
   2.8342053e-03   5.1897710e-03
  -2.4194343e-04   2.4824591e-03
  -8.0030674e-03  -1.9476730e-03
   7.5405692e-03   3.3352694e-04
  -1.7513887e-03  -5.6356645e-03
  -2.2166228e-03   1.2205171e-02
  -4.7302608e-03  -2.5079339e-04
  -2.2329891e-03  -9.5690932e-03
  -6.4689053e-04  -2.7307945e-03
   1.6581782e-04  -4.7813906e-03
   3.2202334e-03   3.6604835e-03
  -1.3171545e-03   1.7480932e-03
  -6.6031785e-03  -2.3520318e-03
   7.2212156e-03   1.7688486e-04
  -5.0700550e-03  -1.1222605e-02
  -6.5537346e-03   1.3548277e-02
  -4.9450119e-03  -1.2765906e-03
  -1.6426646e-03  -8.5833881e-03
  -1.7670459e-03  -5.8503346e-03
  -9.4259784e-04  -1.1167976e-02
   2.8293798e-03   1.9087762e-03
  -2.3474193e-03   4.5927245e-04
  -4.9214769e-03  -2.7838756e-03
   6.0020977e-03   1.8153522e-04
  -7.0889013e-03  -1.4859115e-02
  -7.9598218e-03   1.3310318e-02
  -4.8064332e-03  -1.9795657e-03
  -1.1441009e-03  -8.1243203e-03
  -2.6443266e-03  -8.9866302e-03
  -1.4008919e-03  -1.3759828e-02
   1.8971031e-03   2.6737690e-04
  -3.1835560e-03  -1.0940261e-03
  -3.0603427e-03  -3.1925559e-03
   4.1852883e-03   2.0736393e-04
  -8.0620426e-03  -1.6658611e-02
  -7.0778694e-03   1.1919591e-02
  -4.4810113e-03  -2.4295518e-03
  -7.7764006e-04  -8.2707945e-03
  -3.1820240e-03  -1.1598963e-02
  -1.3030460e-03  -1.3042113e-02
   7.3559043e-04  -1.0235601e-03
  -3.7604131e-03  -2.6538274e-03
  -1.1205126e-03  -3.5067746e-03
   2.0565446e-03   1.9574189e-04
  -8.2362980e-03  -1.6783604e-02
  -4.5373333e-03   9.7830202e-03
  -4.0829914e-03  -2.6614344e-03
  -5.5233002e-04  -9.0027566e-03
  -3.3558157e-03  -1.3340053e-02
  -8.4271084e-04  -1.0080301e-02
  -3.5399203e-04  -1.8118648e-03
  -4.0704504e-03  -4.0225284e-03
   8.0248202e-04  -3.6494881e-03
  -1.2917495e-04   1.5366308e-04
  -7.8391856e-03  -1.5438650e-02
  -9.2536206e-04   7.2695275e-03
  -3.6784030e-03  -2.6845032e-03
  -4.4944388e-04  -1.0208227e-02
  -3.2027577e-03  -1.4074087e-02
  -2.3872610e-04  -6.1080851e-03
  -1.1485015e-03  -2.0421673e-03
  -4.1395712e-03  -5.0698822e-03
   2.6206488e-03  -3.5588428e-03
  -2.1599998e-03   1.2243000e-04
  -7.0692637e-03  -1.2864844e-02
   3.2349321e-03   4.6950584e-03
  -3.2950896e-03  -2.4957859e-03
  -4.3063286e-04  -1.1714172e-02
  -2.8023116e-03  -1.3859122e-02
   3.1814531e-04  -2.2230264e-03
  -1.5376024e-03  -1.7629537e-03
  -4.0095603e-03  -5.7265723e-03
   4.2549159e-03  -3.2063391e-03
  -3.8760468e-03   1.4400356e-04
  -6.0894242e-03  -9.3347350e-03
   7.4986790e-03   2.3108863e-03
  -2.9355016e-03  -2.0969816e-03
  -4.4783121e-04  -1.3325342e-02
  -2.2532762e-03  -1.2901619e-02
   6.9793218e-04   7.9257922e-04
  -1.5241904e-03  -1.1169924e-03
  -3.7280321e-03  -5.9725647e-03
   5.6362396e-03  -2.6043220e-03
  -5.1737292e-03   2.3808564e-04
  -5.0233584e-03  -5.1456673e-03
   1.1506145e-02   2.9663355e-04
  -2.5894824e-03  -1.5112582e-03
  -4.5281780e-04  -1.4858550e-02
  -1.6528627e-03  -1.1499337e-02
   8.4384819e-04   2.5322137e-03
  -1.1996313e-03  -3.1476657e-04
  -3.3434939e-03  -5.8236790e-03
   6.7069962e-03  -1.7996508e-03
  -6.0046518e-03   3.9770044e-04
  -3.9550619e-03  -6.0980081e-04
   1.4983143e-02  -1.2411808e-03
  -2.2447551e-03  -7.9431545e-04
  -4.0481638e-04  -1.6164782e-02
  -1.0815200e-03  -9.9844491e-03
   7.6496419e-04   2.9298647e-03
  -7.0606006e-04   4.0491496e-04
  -2.9039635e-03  -5.3217408e-03
   7.4225132e-03  -8.5732011e-04
  -6.3696030e-03   6.0142136e-04
  -2.9311197e-03   3.9595180e-03
   1.7736410e-02  -2.2648669e-03
  -1.8935819e-03  -3.5087283e-05
  -2.7514474e-04  -1.7137302e-02
  -5.9412664e-04  -8.6720740e-03
   5.1585662e-04   2.1704517e-03
  -1.9531663e-04   8.2541010e-04
  -2.4575936e-03  -4.5319847e-03
   7.7521136e-03   1.5739411e-04
  -6.3094116e-03   8.3201721e-04
  -1.9655116e-03   8.2634752e-03
   1.9645700e-02  -2.7964008e-03
  -1.5350818e-03   6.5565970e-04
  -4.8887323e-05  -1.7709140e-02
  -2.1721294e-04  -7.8169844e-03
   1.7424916e-04   5.9283816e-04
   2.0723574e-04   8.0685303e-04
  -2.0530008e-03  -3.5457548e-03
   7.6792342e-03   1.1897240e-03
  -5.8947914e-03   1.0888689e-03
  -1.0466041e-03   1.2032955e-02
   2.0654157e-02  -2.9051452e-03
  -1.1741729e-03   1.1657955e-03
   2.7541986e-04  -1.7846715e-02
   4.8326173e-05  -7.5809953e-03
  -1.7611893e-04  -1.3867866e-03
   4.2577577e-04   3.2739817e-04
  -1.7372328e-03  -2.4826045e-03
   7.2007126e-03   2.1947884e-03
  -5.2167839e-03   1.3855840e-03
  -1.4575549e-04   1.5040842e-02
   2.0758494e-02  -2.6940768e-03
  -8.1929141e-04   1.4039719e-03
   6.8686147e-04  -1.7545741e-02
   2.2033684e-04  -8.0122235e-03
  -4.5895701e-04  -3.3349230e-03
   4.3872270e-04  -5.0795781e-04
  -1.5492805e-03  -1.4828971e-03
   6.3256761e-03   3.1268081e-03
  -4.3784810e-03   1.7322825e-03
   7.7328763e-04   1.7110448e-02
   2.0000080e-02  -2.2857468e-03
  -4.8069381e-04   1.3162322e-03
   1.1635393e-03  -1.6831187e-02
   3.2714706e-04  -9.0344178e-03
  -6.1928122e-04  -4.8604465e-03
   2.6787373e-04  -1.4946257e-03
  -1.5106288e-03  -6.8938495e-04
   5.0744694e-03   3.9238585e-03
  -3.4879845e-03   2.1097750e-03
   1.7450264e-03   1.8120351e-02
   1.8457518e-02  -1.8088918e-03
  -1.7016193e-04   8.9312777e-04
   1.6747064e-03  -1.5758486e-02
   4.0063244e-04  -1.0445167e-02
  -6.3438993e-04  -5.6721707e-03
  -3.7534031e-05  -2.3757651e-03
  -1.6180531e-03  -2.2565662e-04
   3.4781261e-03   4.4962125e-03
  -2.6521446e-03   2.4472953e-03
   2.7936162e-03   1.8006926e-02
   1.6240939e-02  -1.3858822e-03
   9.8301551e-05   1.6777488e-04
   2.1835984e-03  -1.4412879e-02
   4.7004705e-04  -1.1929371e-02
  -5.1642722e-04  -5.6202728e-03
  -4.1412836e-04  -2.8956884e-03
  -1.8404631e-03  -1.7341707e-04
   1.5791404e-03   4.7260561e-03
  -1.9702524e-03   2.6155635e-03
   3.9258150e-03   1.6766663e-02
   1.3488179e-02  -1.1204035e-03
   3.0791642e-04  -7.9168339e-04
   2.6503136e-03  -1.2905821e-02
   5.5559450e-04  -1.3094697e-02
  -3.0770059e-04  -4.7166810e-03
  -7.9595962e-04  -2.8605421e-03
  -2.1196734e-03  -5.4852623e-04
  -5.6596775e-04   4.4823169e-03
  -1.5269892e-03   2.4420190e-03
   5.1261847e-03   1.4460126e-02
   1.0362820e-02  -1.0847625e-03
   4.3935494e-04  -1.8920630e-03
   3.0346003e-03  -1.1367934e-02
   6.6301206e-04  -1.3527985e-02
  -7.2762493e-05  -3.1347148e-03
  -1.1240434e-03  -2.1999276e-03
  -2.3768031e-03  -1.2828447e-03
  -2.8826793e-03   3.6477841e-03
  -1.3847106e-03   1.7466212e-03
   6.3549569e-03   1.1218135e-02
   7.0536410e-03  -1.3074089e-03
   4.7227961e-04  -3.0247263e-03
   3.2988360e-03  -9.9389260e-03
   7.8096630e-04  -1.2866499e-02
   1.1111051e-04  -1.1858655e-03
  -1.3497692e-03  -1.0084921e-03
  -2.5252266e-03  -2.2204981e-03
  -5.2740682e-03   2.1507013e-03
  -1.5758130e-03   3.8910156e-04
   7.5485739e-03   7.2489432e-03
   3.7744569e-03  -1.7627273e-03
   3.8887431e-04  -4.0716620e-03
   3.4111500e-03  -8.7566681e-03
   8.8241775e-04  -1.0875302e-02
   1.6608506e-04   7.2913125e-04
  -1.4325033e-03   4.4723072e-04
  -2.4881106e-03  -3.1325239e-03
  -7.6167240e-03  -7.6444410e-06
  -2.0961207e-03  -1.6847089e-03
   8.6226177e-03   2.8440274e-03
   7.6337006e-04  -2.3652269e-03
   1.7928056e-04  -4.9067005e-03
   3.3479818e-03  -7.9491155e-03
   9.2979336e-04  -7.5218438e-03
   2.9230937e-05   2.1914042e-03
  -1.3378547e-03   1.7569405e-03
  -2.2155545e-03  -3.7465740e-03
  -9.7572652e-03  -2.7348045e-03
  -2.8998490e-03  -4.4076570e-03
   9.4767505e-03  -1.6198934e-03
  -1.7192416e-03  -2.9691225e-03
  -1.5210757e-04  -5.3930608e-03
   3.0954417e-03  -7.6314627e-03
   8.8309317e-04  -3.0385078e-03
  -3.3203393e-04   2.8416859e-03
  -1.0428914e-03   2.4261387e-03
  -1.6959860e-03  -3.7862684e-03
  -1.1509556e-02  -5.8399182e-03
  -3.8961126e-03  -7.5715240e-03
   1.0001284e-02  -5.6841127e-03
  -3.3943884e-03  -3.3731349e-03
  -5.8106558e-04  -5.3800394e-03
   2.6495749e-03  -7.9076084e-03
   7.1097168e-04   2.0388723e-03
  -9.0885868e-04   2.4481660e-03
  -5.4793697e-04   1.9725765e-03
  -9.6153581e-04  -3.0253321e-03
  -1.2652972e-02  -9.0353618e-03
  -4.9468534e-03  -1.0821488e-02
   1.0084823e-02  -8.8171196e-03
  -3.9701070e-03  -3.3297595e-03
  -1.0605067e-03  -4.7016963e-03
   2.0157751e-03  -8.8734152e-03
   4.0492320e-04   6.8677283e-03
  -1.6427529e-03   9.6670591e-04
   1.1138951e-04   6.9674057e-05
  -9.0364009e-05  -1.3661780e-03
  -1.2932150e-02  -1.1943073e-02
  -5.8660621e-03  -1.3659420e-02
   9.6223118e-03  -1.0429424e-02
  -3.1494078e-03  -2.5581619e-03
  -1.5209815e-03  -3.1769704e-03
   1.2069794e-03  -1.0620546e-02
  -5.5883690e-06   1.0333718e-02
  -2.4173832e-03  -1.3953952e-03
   8.5500936e-04  -3.2736316e-03
   7.9454473e-04   1.0625274e-03
  -1.2058463e-02  -1.4100789e-02
  -6.4201156e-03  -1.5449227e-02
   8.5229446e-03  -9.8925625e-03
  -6.4054446e-04  -7.5940363e-04
  -1.8748063e-03  -6.0740770e-04
   2.3986672e-04  -1.3241751e-02
  -4.4045507e-04   1.1119833e-02
  -3.0550019e-03  -4.1167023e-03
   1.5503907e-03  -7.5338926e-03
   1.5314178e-03   3.8065833e-03
  -9.7136507e-03  -1.4966004e-02
  -6.3295597e-03  -1.5420491e-02
   6.7174569e-03  -6.5604332e-03
   3.8307959e-03   2.3675465e-03
  -2.0240095e-03   3.2308963e-03
  -8.7107669e-04  -1.6838772e-02
  -7.6072300e-04   7.8042863e-03
  -3.3252142e-03  -6.3161802e-03
   2.0081708e-03  -1.1534837e-02
   1.9284786e-03   6.0037140e-03
  -5.5565334e-03  -1.3920066e-02
  -5.2735452e-03  -1.2672596e-02
   4.1641282e-03   2.0810634e-04
   1.0507986e-02   7.1100774e-03
  -1.8717298e-03   8.6036478e-03
  -2.1208049e-03  -2.1533339e-02
  -7.6530311e-04  -1.0185308e-03
  -2.9689932e-03  -6.7380864e-03
   1.9890269e-03  -1.3380414e-02
   1.7732057e-03   6.3406850e-03
   7.6626297e-04  -1.0278026e-02
  -2.8985008e-03  -6.1864555e-03
   8.5272044e-04   1.1025490e-02
   1.9589454e-02   1.3727123e-02
  -1.3350844e-03   1.5845367e-02
  -3.5210840e-03  -2.7481413e-02
  -1.9377030e-04  -1.6605013e-02
  -1.7356838e-03  -3.7764352e-03
   1.2254403e-03  -1.0490524e-02
   8.4100638e-04   3.0742745e-03
   9.6054821e-03  -3.3094375e-03
   1.1679685e-03   5.1482387e-03
  -3.1942086e-03   2.6450402e-02
   3.1215203e-02   2.2435815e-02
  -3.5722048e-04   2.5395510e-02
  -5.1068940e-03  -3.4890388e-02
   1.2626961e-03  -3.9933363e-02
   5.6983351e-04   4.4479088e-03
  -5.4458325e-04   2.3303685e-04
  -1.0964645e-03  -5.8653354e-03
   2.1291429e-02   7.7282331e-03
   7.2983635e-03   2.2486188e-02
  -7.9227305e-03   4.6961906e-02
   4.5454999e-02   3.3400332e-02
   1.0830775e-03   3.7836004e-02
  -6.9404982e-03  -4.4036634e-02
   3.9423523e-03  -7.1591955e-02
   4.0309693e-03   1.9940778e-02
  -3.5364057e-03   2.2106619e-02
  -4.2612606e-03  -2.2681244e-02
   3.6115067e-02   2.3546174e-02
   1.5843606e-02   4.6962408e-02
  -1.3251415e-02   7.2934044e-02
   6.2299343e-02   4.6723905e-02
