  -6.5471496e-02   9.2645982e-02
   3.4270419e-02   4.8230213e-02
  -1.0686260e-02   1.6680879e-02
  -2.5681128e-02  -4.9852451e-02
   1.0068789e-02   7.4214818e-02
   3.8511182e-02  -1.6007203e-02
  -7.4223051e-02  -4.8490883e-03
  -1.9993942e-01  -4.6519613e-02
   4.3398576e-02   1.0013877e-01
  -6.7737724e-02   4.8913114e-02
  -3.7244497e-02   5.8440849e-02
   2.1579217e-02   3.1122286e-02
  -5.5717716e-03   7.6197597e-03
  -7.8907205e-04  -1.5528010e-02
   4.7276183e-03   1.5238700e-02
   2.7650315e-03   1.2121101e-02
  -4.9601125e-02  -1.5632913e-03
  -1.6065997e-01  -3.5833960e-02
   2.9884088e-02   5.9329022e-02
  -5.0436307e-02   3.8850201e-02
  -1.5492768e-02   3.0084032e-02
   1.1152429e-02   1.5898456e-02
  -1.2519267e-03   1.5292562e-03
   8.2798427e-03   4.6619825e-03
  -2.7596037e-03  -1.1402846e-02
  -1.3230867e-02   1.7852579e-02
  -2.7408101e-02   2.2354987e-03
  -1.2419077e-01  -2.5344420e-02
   2.0474519e-02   2.9089930e-02
  -3.6463248e-02   3.2005856e-02
   1.1846012e-04   7.9365802e-03
   3.1297850e-03   3.4626701e-03
   2.1156677e-03  -1.9543694e-03
   8.1734062e-03   1.2664955e-02
  -8.7141120e-03  -1.7122821e-02
  -1.6088774e-02   1.1582655e-02
  -9.1256248e-03   5.5167658e-03
  -9.1679635e-02  -1.5776266e-02
   1.4038558e-02   7.7275834e-03
  -2.5705553e-02   2.7722779e-02
   1.0268455e-02  -8.1613115e-03
  -2.5602323e-03  -5.7144020e-03
   4.4765695e-03  -3.3073387e-03
   4.1144527e-03   1.1807648e-02
  -1.1258265e-02  -1.1704506e-02
  -1.1630722e-02   1.4703936e-03
   4.2815493e-03   7.6984492e-03
  -6.3941586e-02  -7.6372713e-03
   9.5627505e-03  -6.3448084e-03
  -1.7935929e-02   2.5370106e-02
   1.5843737e-02  -1.8744588e-02
  -6.1243659e-03  -1.1602201e-02
   5.8571922e-03  -3.0595606e-03
  -4.5799162e-04   6.0452668e-03
  -1.0250662e-02  -2.4190036e-03
  -4.3784469e-03  -7.1476869e-03
   1.2514253e-02   8.6121591e-03
  -4.1350116e-02  -1.2152299e-03
   6.2682579e-03  -1.4550296e-02
  -1.2812404e-02   2.4363330e-02
   1.7821464e-02  -2.4591660e-02
  -7.8530632e-03  -1.4528792e-02
   6.3518463e-03  -1.7465586e-03
  -3.7450827e-03  -9.6682986e-04
  -6.7295276e-03   6.1192194e-03
   2.5770380e-03  -1.1660196e-02
   1.5948549e-02   8.4015219e-03
  -2.3813517e-02   3.3899979e-03
   3.6747998e-03  -1.8147493e-02
  -9.8993305e-03   2.4179038e-02
   1.7175314e-02  -2.6608872e-02
  -8.0817977e-03  -1.5055672e-02
   6.1115074e-03   1.3305458e-04
  -5.1985046e-03  -6.5844947e-03
  -2.2196420e-03   1.1644951e-02
   7.4790057e-03  -1.1653993e-02
   1.5509638e-02   7.3854494e-03
  -1.0837054e-02   6.2140887e-03
   1.5912699e-03  -1.8256715e-02
  -8.7052316e-03   2.4365303e-02
   1.4804503e-02  -2.5734331e-02
  -7.1599420e-03  -1.3847400e-02
   5.3298280e-03   2.1524679e-03
  -5.0604115e-03  -9.4851724e-03
   1.8621926e-03   1.3684363e-02
   9.6823393e-03  -8.1784126e-03
   1.2446885e-02   5.9249700e-03
  -1.6517470e-03   7.3738391e-03
   4.0339504e-05  -1.5888224e-02
  -8.7292647e-03   2.4549501e-02
   1.1485625e-02  -2.2864039e-02
  -5.4262770e-03  -1.1562817e-02
   4.2252148e-03   3.9818348e-03
  -3.9419179e-03  -9.5820325e-03
   4.5825033e-03   1.2904415e-02
   9.3687950e-03  -2.9812436e-03
   8.0689848e-03   4.3258047e-03
   4.6240611e-03   7.0262826e-03
  -8.5560281e-04  -1.1955659e-02
  -9.5066282e-03   2.4444905e-02
   7.8457281e-03  -1.8800555e-02
  -3.1918575e-03  -8.7810862e-03
   3.0201721e-03   5.4019029e-03
  -2.4994058e-03  -7.6580178e-03
   5.6199492e-03   1.0494367e-02
   7.2434169e-03   2.1474576e-03
   3.5037024e-03   2.7934884e-03
   8.8293068e-03   5.3496728e-03
  -9.9115720e-04  -7.2678121e-03
  -1.0644174e-02   2.3856137e-02
   4.3537060e-03  -1.4222418e-02
  -7.3048532e-04  -5.9640266e-03
   1.9203855e-03   6.3034142e-03
  -1.2317447e-03  -4.8780308e-03
   5.1876561e-03   7.6650188e-03
   4.2443947e-03   5.8381008e-03
  -4.6509954e-04   1.4395231e-03
   1.1644848e-02   2.5458022e-03
  -3.6427029e-04  -2.5025095e-03
  -1.1840503e-02   2.2681969e-02
   1.3260144e-03  -9.6713400e-03
   1.7244721e-03  -3.4483399e-03
   1.0962683e-03   6.6712834e-03
  -3.9545214e-04  -2.3348842e-03
   3.8281016e-03   5.3124355e-03
   1.2925120e-03   7.3831310e-03
  -3.4552261e-03   3.2150148e-04
   1.3538434e-02  -1.1446146e-03
   8.8840984e-04   1.8259194e-03
  -1.2889001e-02   2.0912981e-02
  -1.0577574e-03  -5.5522541e-03
   3.9796781e-03  -1.4571664e-03
   6.6914842e-04   6.5567825e-03
  -1.6895152e-05  -7.4414611e-04
   2.1698970e-03   3.8635835e-03
  -8.9853484e-04   6.7746820e-03
  -5.4408596e-03  -5.0837213e-04
   1.4772554e-02  -5.4261868e-03
   2.5107053e-03   5.3912628e-03
  -1.3666467e-02   1.8621554e-02
  -2.7335831e-03  -2.1405650e-03
   5.8810191e-03  -1.1941105e-04
   7.0345776e-04   6.0439758e-03
   3.1281874e-05  -3.3502647e-04
   7.2328264e-04   3.2947331e-03
  -1.9358541e-03   4.5711457e-03
  -6.6329819e-03  -9.7184479e-04
   1.5461021e-02  -9.9455560e-03
   4.1877646e-03   8.0590564e-03
  -1.4113016e-02   1.5942963e-02
  -3.7289383e-03   4.0701074e-04
   7.3146010e-03   5.1277030e-04
   1.2054968e-03   5.2191310e-03
  -7.2089534e-05  -9.1596385e-04
  -2.3683101e-04   3.2853567e-03
  -1.7789129e-03   1.6446558e-03
  -7.3301691e-03  -9.6684120e-04
   1.5649022e-02  -1.4308513e-02
   5.6249170e-03   9.8615538e-03
  -1.4210106e-02   1.3048617e-02
  -4.1376543e-03   2.0408890e-03
   8.2099161e-03   4.5320283e-04
   2.1284949e-03   4.1539887e-03
  -1.8864675e-04  -2.0416117e-03
  -6.8615366e-04   3.4370834e-03
  -6.9450425e-04  -1.1027640e-03
  -7.7861303e-03  -4.0330472e-04
   1.5388496e-02  -1.8116299e-02
   6.6180696e-03   1.0945842e-02
  -1.3962691e-02   1.0115032e-02
  -4.0946092e-03   2.8088374e-03
   8.5437457e-03  -2.2417521e-04
   3.3829667e-03   2.9052360e-03
  -2.7577303e-04  -3.1957538e-03
  -7.8194990e-04   3.4625972e-03
   8.4762761e-04  -2.9710967e-03
  -8.1288323e-03   7.4464727e-04
   1.4786048e-02  -2.1011131e-02
   7.0944647e-03   1.1506735e-02
  -1.3389029e-02   7.2938506e-03
  -3.7510526e-03   2.8457792e-03
   8.3423506e-03  -1.3923179e-03
   4.8509271e-03   1.5228129e-03
  -3.9312223e-04  -3.9417562e-03
  -7.4842335e-04   3.2769516e-03
   2.3133651e-03  -3.5981357e-03
  -8.3458866e-03   2.3952063e-03
   1.4011985e-02  -2.2717550e-02
   7.1136101e-03   1.1721478e-02
  -1.2518453e-02   4.6884466e-03
  -3.2516691e-03   2.3583792e-03
   7.6794665e-03  -2.8835361e-03
   6.4019398e-03   6.2005779e-05
  -6.6382641e-04  -4.0206116e-03
  -7.6302837e-04   2.9859788e-03
   3.2477562e-03  -2.9869329e-03
  -8.3287139e-03   4.3445917e-03
   1.3272593e-02  -2.3068405e-02
   6.8311877e-03   1.1702465e-02
  -1.1394542e-02   2.3412102e-03
  -2.7149389e-03   1.6019160e-03
   6.6683972e-03  -4.5075162e-03
   7.9085245e-03  -1.4062906e-03
  -1.2070258e-03  -3.3869622e-03
  -8.8242255e-04   2.8097572e-03
   3.3937637e-03  -1.4484746e-03
  -7.9506644e-03   6.2907848e-03
   1.2759247e-02  -2.2010432e-02
   6.4397192e-03   1.1477922e-02
  -1.0079388e-02   2.3334132e-04
  -2.2185187e-03   8.4913008e-04
   5.4479057e-03  -6.0720536e-03
   9.2586027e-03  -2.7932594e-03
  -2.0655295e-03  -2.1906055e-03
  -1.0270878e-03   2.9843081e-03
   2.7601313e-03   5.0353295e-04
  -7.1465390e-03   7.8897976e-03
   1.2594180e-02  -1.9591616e-02
   6.1056208e-03   1.1001529e-02
  -8.6545282e-03  -1.7037133e-03
  -1.7911790e-03   3.5214754e-04
   4.1634913e-03  -7.4027266e-03
   1.0363336e-02  -4.0008702e-03
  -3.1536570e-03  -7.2586652e-04
  -1.0215059e-03   3.6615280e-03
   1.6210886e-03   2.2886453e-03
  -5.9642372e-03   8.8271478e-03
   1.2792197e-02  -1.5938432e-02
   5.9215518e-03   1.0183294e-02
  -7.2155671e-03  -3.5684211e-03
  -1.4124188e-03   3.0097753e-04
   2.9475039e-03  -8.3581945e-03
   1.1159726e-02  -4.9398238e-03
  -4.2462615e-03   6.3087731e-04
  -6.7075607e-04   4.8243485e-03
   4.4411154e-04   3.4205033e-03
  -4.5714519e-03   8.8818625e-03
   1.3251196e-02  -1.1233860e-02
   5.8864473e-03   8.9286562e-03
  -5.8598229e-03  -5.4654653e-03
  -1.0203282e-03   7.8674405e-04
   1.9024982e-03  -8.8395646e-03
   1.1608690e-02  -5.5517890e-03
  -5.0197920e-03   1.4908913e-03
   1.5294196e-04   6.2491193e-03
  -2.4179682e-04   3.6512540e-03
  -3.2167655e-03   7.9627789e-03
   1.3774443e-02  -5.7062652e-03
   5.9159814e-03   7.1718558e-03
  -4.6688591e-03  -7.4824733e-03
  -5.2745765e-04   1.7779680e-03
   1.0917698e-03  -8.7945496e-03
   1.1690752e-02  -5.8319466e-03
  -5.1407183e-03   1.5303947e-03
   1.4406664e-03   7.5410365e-03
  -9.0392095e-06   3.0307567e-03
  -2.1596055e-03   6.1064663e-03
   1.4117436e-02   3.6570756e-04
   5.8767712e-03   4.8929690e-03
  -3.6896766e-03  -9.6698439e-03
   1.5668141e-04   3.1141944e-03
   5.3922358e-04  -8.2183581e-03
   1.1402483e-02  -5.8455798e-03
  -4.3796294e-03   5.6934548e-04
   3.0162880e-03   8.2466497e-03
   1.3127902e-03   1.8594471e-03
  -1.5926934e-03   3.4416650e-03
   1.4045058e-02   6.6360312e-03
   5.6312312e-03   2.1162637e-03
  -2.9190595e-03  -1.2024330e-02
   1.0987864e-03   4.5202499e-03
   2.3835664e-04  -7.1544528e-03
   1.0756643e-02  -5.7304942e-03
  -2.7182391e-03  -1.3534002e-03
   4.5565723e-03   8.0102104e-03
   3.5295137e-03   5.7063386e-04
  -1.5815705e-03   1.4223125e-04
   1.3382295e-02   1.2675339e-02
   5.0780746e-03  -1.1014093e-03
  -2.2949303e-03  -1.4475684e-02
   2.3133810e-03   5.6411649e-03
   1.6800775e-04  -5.6996685e-03
   9.7879238e-03  -5.6831381e-03
  -4.1517708e-04  -3.9207602e-03
   5.6590750e-03   6.7183672e-03
   6.0611111e-03  -4.1265084e-04
  -2.0388584e-03  -3.6006933e-03
   1.2044727e-02   1.7973347e-02
   4.1762324e-03  -4.6764291e-03
  -1.6967868e-03  -1.6875516e-02
   3.7359961e-03   6.0926846e-03
   3.1077025e-04  -4.0162433e-03
   8.5645800e-03  -5.9295306e-03
   1.9973117e-03  -6.5189147e-03
   5.9420061e-03   4.5948417e-03
   8.0318773e-03  -8.0524601e-04
  -2.7388050e-03  -7.5623721e-03
   1.0041920e-02   2.1972666e-02
   2.9464417e-03  -8.4837730e-03
  -9.5500147e-04  -1.8988313e-02
   5.2011677e-03   5.5212703e-03
   6.6871047e-04  -2.3479927e-03
   7.2044772e-03  -6.6852649e-03
   3.8015472e-03  -8.2877293e-03
   5.1531476e-03   2.2241740e-03
   8.4756206e-03  -5.4310311e-04
  -3.3645782e-03  -1.1415875e-02
   7.4555181e-03   2.4137258e-02
   1.4527253e-03  -1.2315847e-02
   1.3331755e-04  -2.0486064e-02
   6.4285145e-03   3.6654754e-03
   1.2705242e-03  -1.0330078e-03
   5.8928716e-03  -8.1140969e-03
   4.2679658e-03  -8.2728632e-03
   3.2663270e-03   4.8772693e-04
   6.6326329e-03   1.8964427e-04
  -3.5710187e-03  -1.4623938e-02
   4.4012959e-03   2.4046960e-02
  -2.2716931e-04  -1.5820906e-02
   1.7854678e-03  -2.0949710e-02
   7.0200258e-03   4.0774587e-04
   2.1650115e-03  -5.0140175e-04
   4.8986209e-03  -1.0296246e-02
   2.8964806e-03  -5.7106673e-03
   5.5050166e-04   3.8128576e-04
   2.2898506e-03   1.0026660e-03
  -3.0420123e-03  -1.6322525e-02
   9.8859395e-04   2.1498995e-02
  -2.0299024e-03  -1.8438061e-02
   4.2150199e-03  -1.9881330e-02
   6.4711146e-03  -4.1965876e-03
   3.3980617e-03  -1.2443710e-03
   4.5854027e-03  -1.3216322e-02
  -3.1257447e-04  -4.5770215e-04
  -2.3970948e-03   2.6681834e-03
  -3.9015584e-03   1.4338341e-03
  -1.5249376e-03  -1.5237095e-02
  -2.7095970e-03   1.6591525e-02
  -3.9218211e-03  -1.9352326e-02
   7.6172521e-03  -1.6729879e-02
   4.1968614e-03  -9.9261075e-03
   4.9738394e-03  -3.7431898e-03
   5.4149324e-03  -1.6777381e-02
  -4.6142623e-03   6.4605676e-03
  -4.6579970e-03   7.3559344e-03
  -1.0202632e-02   1.1896705e-03
   1.1667308e-03  -9.6698008e-03
  -6.6668437e-03   9.7650878e-03
  -5.8947618e-03  -1.7493517e-02
   1.2159442e-02  -1.0930845e-02
  -4.2702899e-04  -1.6443968e-02
   6.8050691e-03  -8.3552007e-03
   7.9400626e-03  -2.0844449e-02
  -8.3680463e-03   1.2260092e-02
  -5.0429068e-03   1.3058865e-02
  -1.3719515e-02   4.5935093e-04
   5.1806829e-03   2.4188423e-03
  -1.0891366e-02   1.7852666e-03
  -7.9425840e-03  -1.1594546e-02
   1.7975659e-02  -1.9571769e-03
  -8.0117396e-03  -2.3392240e-02
   8.6616781e-03  -1.5167890e-02
   1.2786785e-02  -2.5316038e-02
  -9.0440634e-03   1.1906027e-02
  -2.1895289e-03   1.6389598e-02
  -1.0530597e-02   2.2024807e-04
   1.0671312e-02   2.3233161e-02
  -1.5396581e-02  -6.3372361e-03
  -1.0025426e-02  -3.0837181e-04
   2.5164533e-02   1.0624195e-02
  -1.9097852e-02  -3.0512229e-02
   1.0130792e-02  -2.3851011e-02
   2.0624885e-02  -3.0208933e-02
  -3.4349006e-03  -2.0636612e-03
   5.2859912e-03   1.1609555e-02
   3.9916207e-03   2.4126058e-03
   1.7846550e-02   5.4896280e-02
  -2.0163848e-02  -1.3477318e-02
  -1.2033455e-02   1.7638174e-02
   3.3788080e-02   2.7097805e-02
  -3.4102930e-02  -3.7746305e-02
   1.0603259e-02  -3.3561518e-02
   3.2126893e-02  -3.5726792e-02
   1.1904793e-02  -3.9079466e-02
   1.8574317e-02  -9.1214937e-03
   3.4707420e-02   9.7900322e-03
   2.6999136e-02   9.9182590e-02
  -2.5109149e-02  -1.8552046e-02
  -1.3763440e-02   4.3296317e-02
   4.3870202e-02   4.7553932e-02
