   1.9322772e-02   9.5923955e-03  -3.3775442e-02   1.8088597e-02   1.0757662e-01   2.0361426e-01   9.3086614e-02  -1.0734764e-01   9.7464532e-03  -1.7689129e-01  -2.5660565e-01  -1.5669837e-02   4.3699933e-01  -4.0647190e-02  -1.0680937e-01   5.8474495e-01   9.0906057e-02   6.7302848e-02   8.5529912e-02  -1.4521693e+00  -3.2193601e-01  -5.1306397e-01  -4.2839778e-02
  -7.7742147e-03   5.6808242e-03  -9.3244491e-03  -3.8949737e-02  -4.2107938e-02   3.2785881e-02  -1.8493016e-01   1.6166588e-01   3.3550890e-02   9.5320877e-02  -3.0186279e-01   8.3942399e-02   3.2383665e-01  -5.9636546e-01   8.0677378e-01   6.0570085e-01  -5.3441639e-01   1.8219009e-01  -4.1164079e-01  -8.8268753e-02  -4.5011830e-01  -7.0932201e-02  -1.9173142e-01
   7.9707805e-03  -4.7384475e-03   4.1155454e-03   1.6636075e-02   1.0561452e-01  -1.8678489e-02   1.1819457e-01   8.7644116e-02  -1.7939211e-01  -2.5784067e-02  -3.1924666e-01   1.4993819e-01  -6.7113970e-01  -1.9814631e-03   2.2593116e-01   2.8350053e-01  -5.6559400e-02  -3.9136946e-01   2.9452169e-01   7.3887272e-01   8.3731922e-01   8.9261864e-01   7.8255297e-01
  -3.6663852e-03  -2.2549772e-02  -2.2323437e-02  -1.8096452e-02   7.9556452e-02  -2.8919270e-02   9.7248034e-02  -2.4646444e-01  -3.1039104e-01   9.6679807e-02   2.7080943e-01  -1.0573432e-02  -1.6352239e-01  -1.3396336e-01   4.7041668e-03  -4.8908531e-01   2.1489884e-02  -1.2405339e-01  -8.3594125e-01  -2.0665405e-01  -1.8121623e-02  -1.0888953e-01  -5.3888304e-02
  -1.0322397e-02  -2.1925816e-02   8.7830630e-02  -2.4963860e-02   2.4125345e-02  -6.3639888e-02   1.2827758e-01  -3.7245948e-03   8.5950407e-02  -2.9957420e-01  -1.3146285e-01   1.6958884e-02   4.7090204e-02   1.6378128e-01   3.1518017e-02  -7.3043170e-02   7.7026734e-01   4.5565394e-01  -4.1527147e-01   7.2849427e-03  -8.0415938e-02  -4.5731316e-01  -3.5622516e-01
  -2.3767040e-03  -8.7922500e-03   1.3636969e-02  -3.8101729e-03   7.3298802e-02  -2.2511509e-02  -1.6836302e-01   6.8085329e-02  -1.5899003e-01  -8.3617738e-03   1.3261400e-01  -3.5575651e-01   5.4358810e-01  -3.5676304e-01  -3.3848593e-01  -2.1433290e-01  -1.3735258e-01   1.4746564e-01   6.3047044e-02   4.9843528e-01   1.3533917e-01   3.7217423e-01  -3.3702448e-01
   5.3264619e-02  -1.6023269e-02   2.1082085e-01   1.9742973e-01   9.2470293e-02   4.0402730e-02   1.9825711e-01   2.2344629e-01  -1.6111282e-01  -1.3293573e-01   5.1380734e-01   5.9069900e-01   5.0183126e-01  -1.5997802e-02   5.8968211e-01   4.3457086e-03  -9.5681792e-02  -1.5220127e-01   5.4426816e-01   6.2290592e-02   3.7598928e-01   4.8956951e-01   2.4844418e-01
   1.7709221e-01  -4.1702164e-02  -5.8618701e-02  -1.2028406e-01   2.7307968e-02   2.7309755e-01   1.2854064e-01   2.1918618e-01  -4.5810025e-02   2.2687723e-02   7.4782796e-02  -2.1761996e-01   1.2253321e-01  -3.1726236e-01   3.4560043e-01  -4.2474853e-02   7.4908822e-01  -4.4379792e-01  -2.8885672e-01   2.8196844e-01   2.0825895e-01  -1.7909406e-01  -4.5399298e-01
   6.9314689e-03   5.2023218e-02  -1.2932074e-01  -1.5368205e-01   1.0918641e-02  -4.0862253e-02   2.4548972e-01   2.3483750e-01   1.1563282e-01  -2.7664377e-01  -6.5969225e-02   2.1155376e-01  -1.7001593e-01   2.6147774e-01  -2.0398082e-01   5.1836843e-01   7.4740962e-02   1.7270961e-01   5.9246929e-01   4.3857354e-01   3.2116943e-01  -1.4110859e+00   7.9593610e-02
   9.4863060e-02  -3.8154779e-02  -1.4268999e-01   2.0323922e-02   1.7747204e-01  -1.5229614e-01  -1.5363553e-02   1.2510099e-01   1.6148372e-01  -1.6565736e-01  -4.0039597e-01   5.1250418e-01  -2.5430657e-01   2.1510830e-02  -1.3550681e-01  -1.6032341e-01  -5.5994940e-01   3.5097047e-02   8.4652718e-01  -2.9091249e-02   1.4063350e-01  -4.1536148e-02  -3.5292184e-01
   1.2074044e-02   9.4418544e-03  -2.8835706e-02   1.5012195e-02   8.1794463e-02   1.5223153e-01   7.9030395e-02  -7.5503763e-02   3.6535044e-02  -1.3709994e-01  -1.9522712e-01   3.2063874e-02   2.8978322e-01  -3.1297045e-02   7.0569544e-03   4.4983976e-01   6.3237483e-02   5.3149471e-03   7.3770899e-02  -1.0780916e+00  -2.1010956e-01  -3.4927471e-01   7.3580426e-02
  -6.7105360e-03   3.7910269e-03  -1.0108378e-02  -3.7676031e-02  -3.5147393e-02   2.6949170e-02  -1.7013139e-01   1.5317779e-01   1.3775283e-02   8.5500048e-02  -2.8785365e-01   6.7350081e-02   3.0420729e-01  -5.5774896e-01   7.6186036e-01   5.8636649e-01  -5.1800572e-01   1.6191602e-01  -3.5609744e-01  -4.3395408e-02  -3.9386151e-01  -2.8739337e-02  -1.8831594e-01
   8.6170951e-03  -5.2668520e-03  -2.3835925e-04   1.5335526e-02   1.0135825e-01  -9.7153103e-03   1.1722466e-01   6.3489930e-02  -1.8598804e-01  -2.6360527e-02  -2.8710865e-01   1.1706259e-01  -5.3368532e-01  -3.3644860e-02   2.0337637e-01   2.9166224e-01  -6.0594218e-02  -3.2271736e-01   1.7084266e-01   5.9444320e-01   6.8188923e-01   7.1469766e-01   5.8549536e-01
   1.3458204e-03  -5.2947539e-03  -1.0606626e-02  -4.9909440e-03   3.1113603e-02  -2.7037601e-03   5.2841366e-02  -9.4315590e-02  -9.8066688e-02   5.7269057e-02   9.7932269e-02   4.0975601e-02  -1.4941150e-01  -1.4265571e-02  -9.4855657e-03  -1.0220971e-01  -2.7717083e-02  -8.3272668e-02  -2.1327202e-01  -1.8864218e-02   4.8207884e-03  -4.1987164e-02   7.3985957e-02
  -6.4850131e-03  -9.3078214e-03   4.4512983e-02  -1.0667881e-02  -6.1014853e-03  -2.5616793e-02   9.7148926e-02  -8.6822892e-03   8.1937954e-02  -1.7123379e-01  -1.1436573e-01   7.6746756e-02  -7.7384677e-02   1.6192303e-01   9.6644944e-02   5.3631194e-02   4.0903127e-01   1.6345944e-01  -1.9718654e-01  -1.3282777e-01  -8.0349879e-02  -3.1888021e-01  -1.6895371e-01
   7.2545448e-04  -3.8987548e-03  -1.1489169e-02  -1.1143263e-03   2.4268953e-02  -1.7645199e-02  -1.5177346e-01   6.6784868e-02  -1.0121849e-01   6.6192355e-02   6.6597168e-02  -2.3588000e-01   2.7533775e-01  -2.2648720e-01  -1.5867120e-01  -1.3275934e-01  -2.6123128e-01  -5.2822616e-02   1.3979741e-01   3.9174014e-01   1.7575699e-01   3.9964580e-01  -1.3320761e-01
   3.9422878e-02  -1.2972706e-02   1.7345615e-01   1.7136060e-01   5.4187456e-02   2.8325761e-02   1.5800833e-01   1.7194177e-01  -1.3770195e-01  -2.3297862e-02   3.9783361e-01   3.7443816e-01   3.1061204e-01   1.7171595e-02   3.7728150e-01   6.9025829e-02  -1.3784473e-01  -6.9432191e-02   3.4087075e-01   1.9647021e-02   2.1137999e-01   3.2440041e-01   1.2809652e-01
   1.3866562e-01  -3.3696469e-02  -4.4264705e-02  -1.0718525e-01   1.9487779e-03   2.3689026e-01   1.0819286e-01   1.3933322e-01  -2.8955973e-02   7.4614447e-02   8.0403038e-02  -2.7470787e-01   7.1347516e-02  -2.3882354e-01   2.2670299e-01  -4.8223222e-02   6.6510874e-01  -3.2815875e-01  -4.3484821e-01   1.4557220e-01   1.4726301e-01  -2.2797408e-01  -3.0431923e-01
   1.8494406e-03   3.7019036e-02  -8.3685562e-02  -1.0455818e-01  -1.5141381e-02  -2.6680889e-02   1.3542193e-01   1.4419263e-01  -8.7272290e-03  -1.4848376e-01   1.3977474e-02   5.0608917e-02  -7.2179567e-02   7.4023014e-02  -2.0263863e-01   2.2649708e-01  -1.8676314e-02   1.5895130e-01   1.4761996e-01   8.9662462e-02   1.8298838e-01  -6.0872352e-01  -1.2407247e-02
   5.7972240e-02  -3.3240051e-02  -1.1265914e-01   2.2451922e-02   1.3385693e-01  -1.3980181e-01  -1.4528169e-02   5.4104730e-02   1.4904352e-01  -1.3750208e-01  -3.2405944e-01   3.9569492e-01  -2.2101601e-01   3.6612318e-02  -1.3184790e-01  -1.5997468e-01  -3.9945299e-01   5.5799450e-02   4.8878854e-01  -8.9557368e-02   7.4262237e-02  -6.4831928e-02  -2.2501099e-01
   5.6355060e-03   9.6538517e-03  -2.5393016e-02   1.2252547e-02   5.9976663e-02   1.0957409e-01   6.3987493e-02  -4.6197910e-02   5.6374545e-02  -9.8410940e-02  -1.4096134e-01   6.9740284e-02   1.6887599e-01  -2.6119162e-02   1.0025161e-01   3.3923657e-01   2.1693846e-02  -5.3039259e-02   7.9167280e-02  -7.5579123e-01  -1.1383990e-01  -1.9978480e-01   1.6270189e-01
  -5.6776862e-03   1.5883815e-03  -1.1489512e-02  -3.6544607e-02  -2.8058252e-02   2.0380054e-02  -1.5424203e-01   1.4072567e-01  -9.8860305e-03   7.8298868e-02  -2.7053354e-01   5.1941143e-02   2.7872980e-01  -5.2312063e-01   7.2099775e-01   5.5769930e-01  -5.0194407e-01   1.3855524e-01  -3.2341041e-01  -6.2257241e-03  -3.4219895e-01   7.5417736e-03  -1.8668571e-01
   9.0738266e-03  -5.4922620e-03  -3.2612370e-03   1.4159675e-02   9.5565885e-02  -2.5313720e-03   1.1429526e-01   4.4131064e-02  -1.8670307e-01  -2.7087308e-02  -2.5945187e-01   8.9720113e-02  -4.1367214e-01  -6.0920701e-02   1.8714212e-01   3.0254890e-01  -6.5423266e-02  -2.5682299e-01   6.5499091e-02   4.7977108e-01   5.3877649e-01   5.5100716e-01   4.1197169e-01
   5.2959536e-03   2.5122653e-03  -2.1292074e-03   2.7931682e-03   7.4779465e-03   1.2906963e-02   3.1810504e-02  -7.0971577e-03   3.0004907e-02   1.7664346e-02  -5.6674376e-03   5.7612314e-02  -1.1113986e-01   6.1027829e-02  -3.6634013e-02   1.0703186e-01  -3.4825977e-02  -4.5518733e-02   1.6837709e-01   8.0852210e-02   3.2359483e-02  -1.9005326e-02   1.1345700e-01
  -3.7007752e-03  -2.6567147e-04   1.5099465e-02  -2.0578167e-03  -1.8695624e-02   8.0636271e-03   7.7747752e-02  -1.7452636e-02   7.7682376e-02  -8.9887395e-02  -9.9810753e-02   1.0386415e-01  -1.1787236e-01   1.5020898e-01   1.1776597e-01   1.5240255e-01   1.6919969e-01  -5.8935770e-03  -4.9510902e-02  -2.7430225e-01  -1.1931743e-01  -2.4035439e-01  -6.0528165e-02
   2.1068246e-03  -1.5078237e-03  -2.2971878e-02  -1.3891928e-03  -3.6593119e-03  -1.4583366e-02  -1.3139124e-01   5.9940923e-02  -5.7541359e-02   1.0238944e-01   1.8912472e-02  -1.4933275e-01   1.1404250e-01  -1.3359802e-01  -4.2536889e-02  -8.4045143e-02  -2.8634049e-01  -1.4295961e-01   1.4898105e-01   2.8807014e-01   1.7166203e-01   3.6823581e-01  -4.4165927e-03
   2.6983242e-02  -9.2598607e-03   1.3923586e-01   1.4415233e-01   2.5127169e-02   1.3079355e-02   1.1901091e-01   1.2242413e-01  -1.0673485e-01   5.6433717e-02   2.8212533e-01   2.0018507e-01   1.5752937e-01   4.6740700e-02   2.0616035e-01   1.1218806e-01  -1.7034929e-01  -1.4644939e-02   1.8977055e-01  -4.6568348e-03   6.6112417e-02   1.9100553e-01   4.8589851e-02
   1.0384543e-01  -2.4472064e-02  -3.0064434e-02  -9.5166562e-02  -1.6440504e-02   2.0216838e-01   8.5901188e-02   7.6476935e-02  -1.5205816e-02   1.1083540e-01   8.2444263e-02  -3.0760210e-01   3.8914384e-02  -1.7501665e-01   1.2552330e-01  -4.8440008e-02   5.7192813e-01  -2.3076623e-01  -5.0617514e-01   4.4386103e-02   8.2640256e-02  -2.3038844e-01  -1.5852212e-01
  -7.9194513e-04   2.5622731e-02  -4.8320912e-02  -6.5866257e-02  -3.0368310e-02  -1.5352193e-02   5.2715506e-02   7.2876353e-02  -8.7056444e-02  -5.5333761e-02   6.8160339e-02  -4.6657850e-02   1.3276271e-03  -4.6592868e-02  -1.8188788e-01   2.5777205e-02  -7.8386957e-02   1.2819139e-01  -1.2568927e-01  -1.2455204e-01   8.0615242e-02  -5.1819901e-02  -6.7619962e-02
   2.6879747e-02  -2.7051092e-02  -8.5108390e-02   2.4079290e-02   9.7347790e-02  -1.2659636e-01  -1.6693998e-02   2.6231216e-03   1.2812614e-01  -1.1590388e-01  -2.5476988e-01   3.0142169e-01  -1.7802983e-01   4.3440451e-02  -1.2302004e-01  -1.4875281e-01  -2.7292789e-01   6.6968497e-02   2.2581540e-01  -1.2002592e-01   9.4386489e-03  -5.2787490e-02  -1.1756206e-01
   1.3169413e-04   9.8931693e-03  -2.2768643e-02   9.5322198e-03   4.2805313e-02   7.5016747e-02   4.9400316e-02  -2.1347519e-02   6.8838234e-02  -6.3458877e-02  -9.3967350e-02   9.6117335e-02   7.6569548e-02  -2.4449486e-02   1.7143442e-01   2.4858503e-01  -2.3438135e-02  -1.0064217e-01   9.1601122e-02  -4.8703853e-01  -3.4764359e-02  -7.0394781e-02   2.2192792e-01
  -4.6762925e-03  -6.0642640e-04  -1.3028247e-02  -3.5347506e-02  -2.1341043e-02   1.3642044e-02  -1.3819278e-01   1.2667489e-01  -3.4333669e-02   7.2951308e-02  -2.5211494e-01   3.8438733e-02   2.4922155e-01  -4.9167443e-01   6.8315343e-01   5.2549810e-01  -4.8618207e-01   1.1464324e-01  -3.0517132e-01   2.5881360e-02  -2.9632330e-01   3.8028268e-02  -1.8479749e-01
   9.3095281e-03  -5.4344397e-03  -5.2684552e-03   1.3166736e-02   8.8542885e-02   2.9043673e-03   1.0968757e-01   2.9050943e-02  -1.8280333e-01  -2.7234366e-02  -2.3514156e-01   6.7819584e-02  -3.1159919e-01  -8.4443581e-02   1.7735456e-01   3.1393976e-01  -7.3081465e-02  -1.9690480e-01  -2.2037347e-02   3.9292358e-01   4.0892804e-01   4.0284653e-01   2.6233623e-01
   8.2615823e-03   3.3291852e-03   2.8641664e-03   6.3348853e-03   1.5960348e-03   1.9172800e-02   2.8587635e-02   2.7693413e-02   8.7590540e-02  -1.4415161e-02  -5.4254647e-02   5.0863297e-02  -7.3194216e-02   1.0085368e-01  -6.8417836e-02   1.7862173e-01  -1.5988242e-02  -1.9317716e-02   3.4830583e-01   1.1562994e-01   6.3222672e-02  -1.9670411e-02   1.0119349e-01
  -1.9420449e-03   5.6597494e-03  -2.9543436e-03   2.0425181e-03  -1.8473502e-02   3.6008803e-02   6.6967027e-02  -2.8059181e-02   7.3499669e-02  -4.5800645e-02  -8.6920096e-02   1.0660051e-01  -9.9667608e-02   1.3059356e-01   1.0834123e-01   2.2281439e-01   2.5719419e-02  -8.3033528e-02   4.0060994e-02  -4.0364301e-01  -1.7776762e-01  -2.0288681e-01  -9.5948239e-03
   2.0762472e-03  -8.4064567e-04  -2.4008097e-02  -3.2543525e-03  -1.5878224e-02  -1.3784024e-02  -1.1076508e-01   5.0494746e-02  -2.7831279e-02   1.1058732e-01  -1.0182544e-02  -8.9913006e-02   3.4318183e-02  -7.5167691e-02   2.2333059e-02  -6.3891688e-02  -2.4510272e-01  -1.5354603e-01   1.1131821e-01   2.0211612e-01   1.4357748e-01   2.9994695e-01   6.7240370e-02
   1.6295105e-02  -5.3666997e-03   1.0829569e-01   1.1673895e-01   4.4668663e-03  -3.6269169e-03   8.2972324e-02   7.6711025e-02  -7.1272857e-02   1.0871758e-01   1.7144477e-01   6.5594270e-02   3.9409007e-02   7.1935292e-02   7.3718123e-02   1.3648555e-01  -1.9096047e-01   1.7926257e-02   8.3684585e-02  -1.4632906e-02  -5.3943347e-02   8.3835735e-02   1.1193625e-03
   7.3390681e-02  -1.4734501e-02  -1.6740587e-02  -8.4083310e-02  -2.8504252e-02   1.7000491e-01   6.3436888e-02   2.9362867e-02  -4.0031374e-03   1.3287939e-01   8.2254952e-02  -3.1863929e-01   2.1958772e-02  -1.2396980e-01   4.3043002e-02  -4.2591904e-02   4.7350707e-01  -1.4980636e-01  -5.1301558e-01  -2.5206863e-02   2.2367932e-02  -1.9942744e-01  -2.5939863e-02
  -1.2750377e-03   1.7279109e-02  -2.2803116e-02  -3.7028475e-02  -3.6374853e-02  -6.5952978e-03  -3.5161137e-03   2.0192009e-02  -1.2689935e-01   6.4779153e-03   1.0071001e-01  -9.2320965e-02   5.2418546e-02  -1.1300089e-01  -1.4764766e-01  -9.6962721e-02  -1.0769923e-01   8.8782187e-02  -2.6178321e-01  -2.3099449e-01   9.8176377e-03   2.9021839e-01  -8.9753656e-02
   2.0089569e-03  -2.0374869e-02  -6.0865064e-02   2.5195170e-02   6.7601762e-02  -1.1275349e-01  -2.0329910e-02  -3.1383986e-02   1.0147356e-01  -1.0027735e-01  -1.9311405e-01   2.2765635e-01  -1.2943204e-01   4.4528309e-02  -1.0849710e-01  -1.2868821e-01  -1.7629150e-01   6.9997632e-02   4.5825354e-02  -1.2491897e-01  -4.7319218e-02  -1.7871898e-02  -3.6660821e-02
  -4.3546560e-03   9.9348771e-03  -2.0501705e-02   6.7090860e-03   3.0402747e-02   4.7748385e-02   3.6269424e-02  -2.1829796e-03   7.3913503e-02  -3.3847794e-02  -5.4266598e-02   1.1103954e-01   1.2356779e-02  -2.5459465e-02   2.2082163e-01   1.7412356e-01  -6.4639493e-02  -1.3348834e-01   1.0335743e-01  -2.7085036e-01   2.6962616e-02   3.5497348e-02   2.5159973e-01
  -3.7035415e-03  -2.5745047e-03  -1.4366017e-02  -3.3920086e-02  -1.5277982e-02   7.1994989e-03  -1.2267676e-01   1.1278944e-01  -5.7242021e-02   6.8669269e-02  -2.3410860e-01   2.7157918e-02   2.1783749e-01  -4.6288257e-01   6.4721747e-01   4.9369086e-01  -4.7060975e-01   9.2349998e-02  -2.9461003e-01   5.4777321e-02  -2.5683220e-01   6.2490984e-02  -1.8173217e-01
   9.3146870e-03  -5.1142064e-03  -6.5236844e-03   1.2365159e-02   8.0660981e-02   6.7049042e-03   1.0375686e-01   1.7667633e-02  -1.7552359e-01  -2.6251752e-02  -2.1324768e-01   5.1016880e-02  -2.2717676e-01  -1.0472919e-01   1.7371733e-01   3.2401785e-01  -8.4851367e-02  -1.4509487e-01  -9.2771331e-02   3.3121133e-01   2.9265805e-01   2.7083405e-01   1.3616830e-01
   1.0290098e-02  -2.8117313e-04   4.6338153e-03   6.9337145e-03   6.7645751e-03   1.8205250e-02   3.7399485e-02   2.4522938e-02   9.2274239e-02  -3.4831340e-02  -6.3133095e-02   3.1350300e-02  -5.0626661e-02   1.1531945e-01  -9.8978084e-02   1.5567070e-01   1.5148903e-02  -8.7839623e-03   3.7632913e-01   1.0824649e-01   9.4596015e-02  -2.8013568e-02   6.6935827e-02
  -1.1455311e-03   9.0055721e-03  -1.2331237e-02   2.7766386e-03  -1.0119464e-02   5.7522067e-02   6.1928565e-02  -3.8358631e-02   7.0362688e-02  -2.9257770e-02  -7.5488941e-02   9.3292115e-02  -4.6580165e-02   1.0601731e-01   8.1909486e-02   2.6739719e-01  -4.6757830e-02  -9.7480464e-02   8.6050266e-02  -5.1055456e-01  -2.3962045e-01  -1.8944657e-01   3.5748929e-03
   9.9698905e-04  -1.1668081e-03  -1.7882149e-02  -5.5694454e-03  -1.7669347e-02  -1.5288677e-02  -9.2746131e-02   4.1369340e-02  -1.0680728e-02   1.0066675e-01  -2.2187783e-02  -5.1117005e-02   1.1203857e-02  -4.6202816e-02   4.9428823e-02  -6.5648116e-02  -1.6802332e-01  -1.1381590e-01   4.7874678e-02   1.4422768e-01   1.0820264e-01   2.1434320e-01   9.8591851e-02
   7.5579352e-03  -1.7135632e-03   8.0801083e-02   9.0081120e-02  -8.9303894e-03  -2.0311533e-02   5.1089596e-02   3.6251357e-02  -3.4365743e-02   1.3685706e-01   6.9944823e-02  -3.2982419e-02  -4.7473270e-02   9.1891622e-02  -2.3727844e-02   1.4449065e-01  -1.9852442e-01   3.3674450e-02   1.4247083e-02  -1.4566488e-02  -1.4508434e-01  -7.8971604e-04  -2.2548035e-02
   4.7803091e-02  -5.1572063e-03  -4.8706563e-03  -7.3837067e-02  -3.5011213e-02   1.4113878e-01   4.2331048e-02  -3.7528903e-03   5.1335105e-03   1.4264854e-01   8.0963738e-02  -3.1085563e-01   1.6788162e-02  -8.3950033e-02  -2.0607491e-02  -3.1282574e-02   3.7390574e-01  -8.3382359e-02  -4.6758141e-01  -6.7753645e-02  -2.7417860e-02  -1.4758575e-01   8.6767863e-02
  -5.4491828e-05   1.1410833e-02  -6.1353993e-03  -1.7003468e-02  -3.5201559e-02  -1.9523777e-04  -3.5918044e-02  -1.5362707e-02  -1.3686498e-01   4.1736771e-02   1.1600404e-01  -9.9346691e-02   8.3484389e-02  -1.3813906e-01  -1.0584728e-01  -1.5674931e-01  -1.1195381e-01   4.7445976e-02  -2.9566319e-01  -2.5654329e-01  -3.4385501e-02   4.5516238e-01  -8.4644257e-02
  -1.6555213e-02  -1.3934972e-02  -4.0487501e-02   2.5767544e-02   4.4147257e-02  -9.8544003e-02  -2.4127359e-02  -5.0390906e-02   7.1684970e-02  -8.9754685e-02  -1.3956998e-01   1.7191298e-01  -7.9390428e-02   4.1910532e-02  -8.8402854e-02  -1.0275262e-01  -1.0480182e-01   6.6244558e-02  -6.5015767e-02  -1.0952966e-01  -9.1249557e-02   2.8846231e-02   1.5036073e-02
  -7.7846668e-03   9.6599092e-03  -1.8333611e-02   3.7629576e-03   2.2404317e-02   2.6859134e-02   2.5176072e-02   1.0791457e-02   7.2052456e-02  -1.0285735e-02  -2.1770530e-02   1.1530884e-01  -2.6508573e-02  -2.8164848e-02   2.5000850e-01   1.1290074e-01  -9.7128857e-02  -1.5032323e-01   1.0941901e-01  -1.0389441e-01   7.2348907e-02   1.1663442e-01   2.5441836e-01
  -2.7521916e-03  -4.1953264e-03  -1.5246257e-02  -3.2151958e-02  -9.9654025e-03   1.3902949e-03  -1.0814020e-01   1.0019942e-01  -7.7133220e-02   6.4773977e-02  -2.1736824e-01   1.8071133e-02   1.8666715e-01  -4.3647141e-01   6.1213481e-01   4.6440390e-01  -4.5512335e-01   7.3327767e-02  -2.8687870e-01   8.1542661e-02  -2.2376154e-01   8.0551729e-02  -1.7736744e-01
   9.1006714e-03  -4.5537365e-03  -7.2366917e-03   1.1720418e-02   7.2334571e-02   9.0418367e-03   9.6910654e-02   9.3581880e-03  -1.6604499e-01  -2.3770675e-02  -1.9306257e-01   3.8748918e-02  -1.5941748e-01  -1.2218108e-01   1.7552975e-01   3.3134135e-01  -1.0126540e-01  -1.0245715e-01  -1.4815027e-01   2.9133100e-01   1.8976538e-01   1.5500264e-01   3.2356597e-02
   1.1430584e-02  -5.9496870e-03   3.8236318e-03   5.9075885e-03   1.7229629e-02   1.2573381e-02   5.2853696e-02  -1.9762747e-03   6.2982288e-02  -4.2749698e-02  -4.6979366e-02   7.9616010e-03  -4.9514082e-02   1.1442358e-01  -1.2484898e-01   7.9435934e-02   4.8205976e-02  -1.4010112e-02   3.0586394e-01   7.9210937e-02   1.2306136e-01  -3.3348270e-02   3.1996357e-02
  -1.2134958e-03   1.0325084e-02  -1.5625992e-02   1.1772352e-03   2.2132325e-03   7.2538009e-02   6.0177553e-02  -4.6452578e-02   6.9487713e-02  -3.1265025e-02  -6.5760919e-02   7.1575985e-02   2.0873513e-02   7.9830716e-02   5.0773708e-02   2.9057196e-01  -7.1756495e-02  -7.5515552e-02   1.0313481e-01  -5.8868389e-01  -2.9290632e-01  -1.8591176e-01  -4.2485080e-03
  -7.3907508e-04  -1.8702510e-03  -7.6908736e-03  -7.4957044e-03  -1.3753637e-02  -1.8801200e-02  -7.9322088e-02   3.5014908e-02  -3.8878102e-03   8.1358301e-02  -1.9954927e-02  -2.6793386e-02   2.2130280e-02  -4.0441300e-02   5.1868407e-02  -8.1636465e-02  -8.1279263e-02  -4.9496276e-02  -2.2328705e-02   1.1962258e-01   7.7677888e-02   1.2741179e-01   1.0425744e-01
   8.1435628e-04   1.3727383e-03   5.6916709e-02   6.5091616e-02  -1.6398054e-02  -3.5773410e-02   2.4040646e-02   2.0744030e-03   1.2344884e-03   1.4477396e-01  -1.9083769e-02  -1.0010665e-01  -1.0716871e-01   1.0585730e-01  -9.0665321e-02   1.3873256e-01  -1.9298981e-01   3.7497407e-02  -2.7192530e-02  -8.6049788e-03  -2.0596539e-01  -6.5091506e-02  -2.9782708e-02
   2.7301726e-02   3.6717919e-03   5.1361283e-03  -6.4371467e-02  -3.6825545e-02   1.1597456e-01   2.3777622e-02  -2.4958179e-02   1.2653392e-02   1.4232432e-01   7.9402824e-02  -2.8777207e-01   1.9561976e-02  -5.3380542e-02  -6.6133588e-02  -1.5951886e-02   2.7696002e-01  -2.9506466e-02  -3.8319352e-01  -8.8352799e-02  -6.2694726e-02  -8.6117243e-02   1.7571423e-01
   2.3052789e-03   7.4672619e-03   3.1101804e-03  -4.4141143e-03  -2.9079329e-02   4.0325483e-03  -4.8463341e-02  -3.5963949e-02  -1.2576496e-01   5.5960132e-02   1.1834960e-01  -8.0500118e-02   9.7394895e-02  -1.3431728e-01  -6.1950408e-02  -1.6921915e-01  -9.7771833e-02   9.1940945e-03  -2.6061385e-01  -2.2652778e-01  -5.7505000e-02   4.8465601e-01  -5.9471529e-02
  -2.9059812e-02  -8.3340964e-03  -2.4251123e-02   2.5762739e-02   2.6395818e-02  -8.4376879e-02  -2.7080493e-02  -5.7123775e-02   4.1164042e-02  -8.3244425e-02  -9.4493543e-02   1.3143360e-01  -3.1841611e-02   3.7132483e-02  -6.3476348e-02  -7.4353548e-02  -5.3457223e-02   5.7061813e-02  -1.2151619e-01  -7.9589359e-02  -1.1954688e-01   7.8174822e-02   3.8082630e-02
  -1.0162885e-02   9.0394471e-03  -1.6174648e-02   7.7127377e-04   1.8075553e-02   1.1413546e-02   1.6336546e-02   1.7743350e-02   6.4140873e-02   7.2287411e-03   3.7182433e-03   1.1046724e-01  -4.4317963e-02  -3.1491239e-02   2.6166802e-01   6.2804325e-02  -1.1858802e-01  -1.5209171e-01   1.0738270e-01   1.8960986e-02   1.0320519e-01   1.7352207e-01   2.3474904e-01
  -1.8115263e-03  -5.4325962e-03  -1.5522549e-02  -2.9989377e-02  -5.3609847e-03  -3.5831572e-03  -9.4798844e-02   8.9443395e-02  -9.3344111e-02   6.0789007e-02  -2.0219719e-01   1.0896198e-02   1.5742273e-01  -4.1236442e-01   5.7700614e-01   4.3821879e-01  -4.3967882e-01   5.8627607e-02  -2.7905881e-01   1.0657730e-01  -1.9667426e-01   9.1881851e-02  -1.7204220e-01
   8.6972287e-03  -3.7771661e-03  -7.5668811e-03   1.1164995e-02   6.3990691e-02   1.0121424e-02   8.9581901e-02   3.4910273e-03  -1.5547433e-01  -1.9589230e-02  -1.7410142e-01   3.0288369e-02  -1.0678519e-01  -1.3710226e-01   1.8175065e-01   3.3481231e-01  -1.2217951e-01  -6.9095317e-02  -1.8998767e-01   2.6955206e-01   9.9679213e-02   5.4927423e-02  -5.0776653e-02
   1.1758997e-02  -1.1735059e-02   1.3095863e-03   4.4190431e-03   2.8581554e-02   4.8983484e-03   7.0410179e-02  -3.8587359e-02   1.7649274e-02  -3.9973134e-02  -1.8513548e-02  -1.2701344e-02  -6.8519445e-02   1.0695485e-01  -1.4467243e-01  -1.4767821e-02   7.6379316e-02  -3.1909306e-02   1.8743442e-01   4.5279789e-02   1.4547596e-01  -3.0342993e-02   9.0520275e-03
  -2.0180834e-03   1.0138970e-02  -1.5155227e-02  -1.8884130e-03   1.5198338e-02   8.1509946e-02   5.9812608e-02  -5.1022514e-02   7.1945700e-02  -4.4085410e-02  -5.8187088e-02   4.7785796e-02   8.6721253e-02   5.5255201e-02   2.4920565e-02   2.9757223e-01  -6.9286716e-02  -3.8588190e-02   1.0435018e-01  -6.3583611e-01  -3.2997240e-01  -1.8175171e-01  -2.0086483e-02
  -2.7412483e-03  -2.4894093e-03   3.8871753e-03  -8.5163132e-03  -7.9568679e-03  -2.3788513e-02  -7.1553922e-02   3.3070691e-02  -4.9201619e-03   5.9756237e-02  -7.2131163e-03  -1.1680044e-02   4.8407627e-02  -5.1149059e-02   4.1130849e-02  -1.0433528e-01  -4.9530814e-03   1.8777745e-02  -8.4171566e-02   1.2828170e-01   5.9343251e-02   5.0883982e-02   9.5930440e-02
  -4.0381085e-03   3.6770047e-03   3.6769640e-02   4.2566973e-02  -1.9340558e-02  -4.9108547e-02   2.0284910e-03  -2.5222292e-02   3.3279534e-02   1.3673717e-01  -9.3356406e-02  -1.4083267e-01  -1.4385204e-01   1.1335339e-01  -1.3205934e-01   1.2174290e-01  -1.7536504e-01   3.3710662e-02  -4.8816359e-02  -4.0754371e-04  -2.3750539e-01  -1.1036482e-01  -2.6931245e-02
   1.1823415e-02   1.1290406e-02   1.3046160e-02  -5.5665067e-02  -3.4868580e-02   9.4613103e-02   8.5759419e-03  -3.6527573e-02   1.8989569e-02   1.3423856e-01   7.8086981e-02  -2.5315436e-01   2.6566044e-02  -3.0837149e-02  -9.4981962e-02   1.4654534e-03   1.8598563e-01   1.3880493e-02  -2.7332075e-01  -9.2266151e-02  -8.1592711e-02  -2.4570391e-02   2.3961774e-01
   5.2012518e-03   4.9613157e-03   6.6211637e-03   2.3079475e-03  -2.0196632e-02   6.2848627e-03  -4.5939047e-02  -4.4272197e-02  -1.0185897e-01   5.4969663e-02   1.1172171e-01  -4.7376298e-02   9.7413484e-02  -1.1245334e-01  -2.0571722e-02  -1.4945826e-01  -7.2285449e-02  -2.2589699e-02  -1.8617412e-01  -1.6349941e-01  -6.5269061e-02   4.2081814e-01  -2.1963457e-02
  -3.6049932e-02  -4.0127712e-03  -1.2157042e-02   2.5161772e-02   1.3666035e-02  -7.0728484e-02  -2.8527711e-02  -5.4381320e-02   1.2053408e-02  -7.9525164e-02  -5.8084621e-02   1.0337302e-01   9.8101350e-03   3.1293999e-02  -3.4975537e-02  -4.6847079e-02  -1.7374931e-02   4.3805184e-02  -1.3840267e-01  -4.0840620e-02  -1.3135946e-01   1.2305448e-01   3.5753108e-02
  -1.1534808e-02   8.1124887e-03  -1.4058680e-02  -2.1219457e-03   1.6455070e-02   5.0596596e-04   9.6789147e-03   1.9382944e-02   5.1400882e-02   1.9198498e-02   2.2521068e-02   9.8523656e-02  -4.6176113e-02  -3.4377942e-02   2.5916495e-01   2.2437512e-02  -1.2870886e-01  -1.4127666e-01   9.7067459e-02   1.0402590e-01   1.2179108e-01   2.0799126e-01   1.9789979e-01
  -8.6968658e-04  -6.3128915e-03  -1.5154209e-02  -2.7430215e-02  -1.3370904e-03  -7.6456449e-03  -8.2674993e-02   8.0570332e-02  -1.0590281e-01   5.6485877e-02  -1.8849546e-01   5.1941301e-03   1.3124851e-01  -3.9060398e-01   5.4115111e-01   4.1456136e-01  -4.2432354e-01   4.8689780e-02  -2.6992783e-01   1.2974638e-01  -1.7478778e-01   9.6368472e-02  -1.6626173e-01
   8.1486538e-03  -2.8113528e-03  -7.6310910e-03   1.0610767e-02   5.6035803e-02   1.0162498e-02   8.2198766e-02  -5.3725900e-04  -1.4482295e-01  -1.3648221e-02  -1.5608718e-01   2.4811277e-02  -6.7377583e-02  -1.4971076e-01   1.9109685e-01   3.3364771e-01  -1.4690340e-01  -4.4331436e-02  -2.2034894e-01   2.6193151e-01   2.1612663e-02  -3.0131808e-02  -1.1532586e-01
   1.1392138e-02  -1.6270789e-02  -1.9610770e-03   3.3491493e-03   3.7920194e-02  -2.5086869e-03   8.6687730e-02  -7.4695540e-02  -2.8690353e-02  -3.0020108e-02   1.2376570e-02  -2.6551593e-02  -1.0120739e-01   9.9696359e-02  -1.5873401e-01  -1.0034978e-01   9.6276625e-02  -5.7376381e-02   6.3396562e-02   1.8548425e-02   1.5968079e-01  -1.8300658e-02   3.0584615e-03
  -3.4080474e-03   8.9039079e-03  -1.2821721e-02  -5.7457774e-03   2.6500926e-02   8.5269215e-02   5.9543265e-02  -5.1537203e-02   7.8358215e-02  -6.1569591e-02  -5.3202848e-02   2.6561055e-02   1.4013784e-01   3.4950875e-02   1.1300611e-02   2.9352914e-01  -5.4755914e-02  -2.3965385e-03   9.9788747e-02  -6.5366880e-01  -3.4726446e-01  -1.7027095e-01  -3.5047724e-02
  -4.6502865e-03  -2.7294327e-03   1.4756354e-02  -8.4174074e-03  -3.0197965e-03  -2.9588642e-02  -6.9614172e-02   3.6187945e-02  -1.1295043e-02   4.1049841e-02   1.1917794e-02  -1.7555860e-03   7.6117335e-02  -7.1825664e-02   2.6123254e-02  -1.2729002e-01   4.7916534e-02   7.6362363e-02  -1.2754521e-01   1.6549958e-01   5.5982888e-02  -7.9684467e-03   8.2117366e-02
  -7.2179267e-03   5.0982023e-03   2.0412298e-02   2.3133240e-02  -1.9115960e-02  -5.9694317e-02  -1.5129691e-02  -4.5451500e-02   6.0125976e-02   1.1707511e-01  -1.5162067e-01  -1.6031079e-01  -1.6164585e-01   1.1427912e-01  -1.5301400e-01   9.6095831e-02  -1.4759566e-01   2.5970706e-02  -5.7727718e-02   7.1053417e-03  -2.4254353e-01  -1.3753965e-01  -1.9272629e-02
   1.0488997e-03   1.7386612e-02   1.8793974e-02  -4.7720901e-02  -3.0076596e-02   7.6908064e-02  -2.8821450e-03  -4.0767388e-02   2.4536769e-02   1.2072577e-01   7.7249821e-02  -2.1077924e-01   3.4466499e-02  -1.5032368e-02  -1.0918841e-01   1.8885470e-02   1.0354807e-01   4.8848508e-02  -1.5068656e-01  -8.4563378e-02  -8.4213355e-02   2.9497677e-02   2.7941162e-01
   8.0635349e-03   3.4914134e-03   6.1638888e-03   4.7765073e-03  -1.0497133e-02   6.8107563e-03  -3.3405357e-02  -4.3208500e-02  -7.2275339e-02   4.4458938e-02   9.9575666e-02  -9.6517266e-03   8.7039151e-02  -8.1539829e-02   1.4783418e-02  -1.1102251e-01  -4.2412447e-02  -4.5955551e-02  -9.6649279e-02  -8.6354429e-02  -6.3246570e-02   3.0308723e-01   2.0339861e-02
  -3.8310545e-02  -1.2275425e-03  -3.9610641e-03   2.3973056e-02   5.2153055e-03  -5.8067396e-02  -2.8152554e-02  -4.4872932e-02  -1.3846708e-02  -7.7358551e-02  -3.0337291e-02   8.4960459e-02   4.2947381e-02   2.5116289e-02  -4.5384267e-03  -2.3115014e-02   7.8884229e-03   2.7808115e-02  -1.2938833e-01   1.3436389e-03  -1.2759912e-01   1.5861392e-01   1.3344596e-02
  -1.1982669e-02   6.9613107e-03  -1.2093138e-02  -4.7396758e-03   1.6501950e-02  -6.7031409e-03   4.9316097e-03   1.6787344e-02   3.5252325e-02   2.6425542e-02   3.5103473e-02   8.1666973e-02  -3.7319578e-02  -3.5894574e-02   2.4614166e-01  -9.1015340e-03  -1.2864157e-01  -1.2121331e-01   7.9918138e-02   1.5816946e-01   1.3050169e-01   2.2275737e-01   1.4946489e-01
   8.3375435e-05  -6.9011205e-03  -1.4191044e-02  -2.4513587e-02   2.2681921e-03  -1.0827085e-02  -7.1647242e-02   7.3279495e-02  -1.1534177e-01   5.1880478e-02  -1.7592254e-01   4.6440687e-04   1.0866164e-01  -3.7126579e-01   5.0413266e-01   3.9215432e-01  -4.0919988e-01   4.3404308e-02  -2.5955298e-01   1.5055922e-01  -1.5712070e-01   9.4222951e-02  -1.6047720e-01
   7.5088752e-03  -1.6866742e-03  -7.5137356e-03   9.9625149e-03   4.8823484e-02   9.3778330e-03   7.5153523e-02  -3.2656322e-03  -1.3498418e-01  -6.0034744e-03  -1.3892230e-01   2.1468616e-02  -3.9115642e-02  -1.6015864e-01   2.0216192e-01   3.2735358e-01  -1.7436529e-01  -2.6928863e-02  -2.4141266e-01   2.6453770e-01  -4.5295878e-02  -1.0109177e-01  -1.6364164e-01
   1.0488646e-02  -1.8816296e-02  -5.1188036e-03   3.2290238e-03   4.3799302e-02  -7.9222504e-03   9.9583611e-02  -1.0297524e-01  -6.5180150e-02  -1.7110466e-02   3.9015563e-02  -3.1914176e-02  -1.3868079e-01   9.7008928e-02  -1.6837336e-01  -1.6072127e-01   1.0734817e-01  -8.4581565e-02  -3.5564922e-02   6.1761409e-03   1.6494240e-01   1.3552415e-04   1.2990098e-02
  -5.2169797e-03   6.9986355e-03  -1.0043050e-02  -9.9137440e-03   3.4802738e-02   8.4876510e-02   5.8676011e-02  -4.8306295e-02   8.8716023e-02  -7.9276009e-02  -5.1050750e-02   1.0702906e-02   1.7539813e-01   2.0734526e-02   1.3539584e-02   2.8281696e-01  -3.8564353e-02   2.3313132e-02   9.5933395e-02  -6.4694528e-01  -3.4474096e-01  -1.4843648e-01  -4.4128389e-02
  -6.1654602e-03  -2.4496296e-03   2.3489390e-02  -7.2368358e-03  -5.5987931e-04  -3.5513017e-02  -7.2913089e-02   4.4028771e-02  -2.0839854e-02   2.8474496e-02   3.3377054e-02   5.6274199e-03   9.6374178e-02  -9.6754771e-02   1.2681544e-02  -1.4567992e-01   7.1409403e-02   1.1477926e-01  -1.4764623e-01   2.2296988e-01   6.6493484e-02  -4.6096632e-02   6.8288197e-02
  -9.0181758e-03   5.6379701e-03   7.7917873e-03   7.2105861e-03  -1.6940502e-02  -6.7152090e-02  -2.7884602e-02  -5.8790933e-02   8.0735129e-02   8.9903849e-02  -1.9357920e-01  -1.6346124e-01  -1.6447487e-01   1.0895185e-01  -1.5846448e-01   6.4426633e-02  -1.1235532e-01   1.7198131e-02  -5.9557365e-02   1.1882480e-02  -2.2532921e-01  -1.4766835e-01  -1.1048675e-02
  -5.5492422e-03   2.1805309e-02   2.2462403e-02  -4.0553477e-02  -2.3360207e-02   6.2538679e-02  -1.0582936e-02  -3.9876477e-02   2.9596060e-02   1.0397737e-01   7.6924738e-02  -1.6423314e-01   4.0522104e-02  -4.7932181e-03  -1.1119524e-01   3.4388065e-02   3.1326541e-02   7.7377142e-02  -2.6532310e-02  -6.9832086e-02  -7.2282324e-02   7.0649903e-02   2.9770291e-01
   1.0418936e-02   2.7482375e-03   3.4142213e-03   4.5177018e-03  -1.5284428e-03   5.9377751e-03  -1.5686717e-02  -3.5723606e-02  -4.2641569e-02   2.9596209e-02   8.4737953e-02   2.5379985e-02   6.9800203e-02  -4.8371487e-02   4.1841256e-02  -6.5213285e-02  -1.4225458e-02  -6.0136883e-02  -1.0272288e-02  -9.8413383e-03  -5.6458774e-02   1.6560292e-01   6.0714333e-02
  -3.6790633e-02  -4.8974239e-05   7.8098867e-04   2.2240691e-02   2.7449030e-04  -4.6784864e-02  -2.5948164e-02  -3.1085603e-02  -3.5166859e-02  -7.5603355e-02  -1.0985528e-02   7.3622401e-02   6.5921977e-02   1.9022028e-02   2.5977656e-02  -5.2445034e-03   2.6101649e-02   1.0322115e-02  -1.0644286e-01   4.2265790e-02  -1.1060950e-01   1.8206258e-01  -2.2634460e-02
  -1.1619700e-02   5.6888604e-03  -1.0411601e-02  -6.9038092e-03   1.7227911e-02  -1.0967883e-02   1.7132140e-03   1.1209478e-02   1.7160315e-02   2.9837064e-02   4.2088784e-02   6.2004764e-02  -2.2558876e-02  -3.5345440e-02   2.2613183e-01  -3.2472706e-02  -1.2042950e-01  -9.5461370e-02   5.8326303e-02   1.8826275e-01   1.3162288e-01   2.2102250e-01   9.4797241e-02
   1.0530988e-03  -7.2767669e-03  -1.2750226e-02  -2.1306489e-02   5.6091925e-03  -1.3231445e-02  -6.1504671e-02   6.7074204e-02  -1.2248040e-01   4.7186391e-02  -1.6405191e-01  -3.7732089e-03   8.9613528e-02  -3.5437987e-01   4.6574551e-01   3.6946524e-01  -3.9451947e-01   4.2228556e-02  -2.4879532e-01   1.6835703e-01  -1.4263895e-01   8.6017903e-02  -1.5495577e-01
   6.8358514e-03  -4.3772872e-04  -7.2773935e-03   9.1312569e-03   4.2627291e-02   7.9601803e-03   6.8773646e-02  -5.1381466e-03  -1.2671022e-01   3.2002763e-03  -1.2265103e-01   1.9452375e-02  -1.9916160e-02  -1.6855365e-01   2.1353803e-01   3.1570170e-01  -2.0328762e-01  -1.5330634e-02  -2.5532333e-01   2.7366376e-01  -1.0186906e-01  -1.5892794e-01  -1.9817621e-01
   9.2380249e-03  -1.9217644e-02  -7.4906780e-03   4.2304026e-03   4.5991082e-02  -1.0362364e-02   1.0821301e-01  -1.1955403e-01  -8.5691872e-02  -5.2197157e-03   5.7852329e-02  -2.9141670e-02  -1.7210122e-01   1.0080632e-01  -1.7535157e-01  -1.8909401e-01   1.1104099e-01  -1.0819802e-01  -9.1912754e-02   1.0706479e-02   1.6208360e-01   2.0562134e-02   3.4016735e-02
  -7.2723032e-03   4.7240897e-03  -7.7446473e-03  -1.4083150e-02   3.9702436e-02   8.1482560e-02   5.7038424e-02  -4.2382283e-02   1.0233244e-01  -9.4400169e-02  -5.1667207e-02   1.2688703e-03   1.9126452e-01   1.3460510e-02   3.2084860e-02   2.6869640e-01  -2.6362976e-02   3.4278568e-02   9.5642561e-02  -6.2248302e-01  -3.2501692e-01  -1.1635464e-01  -4.5626821e-02
  -7.0651916e-03  -1.6334292e-03   2.9331528e-02  -5.1914707e-03  -1.1689087e-03  -4.0932601e-02  -8.0289449e-02   5.5424684e-02  -3.1826559e-02   2.3459467e-02   5.3538173e-02   1.1820376e-02   1.0500419e-01  -1.2136822e-01   3.5334517e-03  -1.5653498e-01   6.5984023e-02   1.3121687e-01  -1.4451584e-01   2.9021980e-01   8.6872628e-02  -6.4076968e-02   5.7329832e-02
  -9.7606378e-03   5.3791438e-03  -1.2689183e-03  -5.0017633e-03  -1.3823911e-02  -7.1302481e-02  -3.6828933e-02  -6.5724996e-02   9.4598882e-02   5.8901195e-02  -2.1974267e-01  -1.5474624e-01  -1.5594926e-01   9.8086144e-02  -1.5293209e-01   2.9414312e-02  -7.2759963e-02   9.5075683e-03  -5.8318823e-02   1.2754194e-02  -1.9095237e-01  -1.4226609e-01  -5.5154208e-03
  -8.6441187e-03   2.4539726e-02   2.4253843e-02  -3.4175132e-02  -1.5569796e-02   5.1085911e-02  -1.4828368e-02  -3.5833979e-02   3.4305399e-02   8.5917992e-02   7.7046928e-02  -1.1676033e-01   4.2738995e-02   9.6333148e-04  -1.0366478e-01   4.6465575e-02  -2.9915663e-02   1.0122886e-01   8.9903893e-02  -5.1971496e-02  -4.8710993e-02   9.5569887e-02   2.9817010e-01
   1.1938267e-02   2.5085072e-03  -1.8212947e-04   2.8609221e-03   5.6451471e-03   4.0751015e-03   3.0518907e-03  -2.4586345e-02  -1.6926668e-02   1.4697383e-02   6.9367388e-02   5.2964545e-02   4.9031445e-02  -1.7530312e-02   5.9546556e-02  -2.0651953e-02   7.5437776e-03  -6.5288138e-02   6.0961370e-02   5.5558240e-02  -4.9040152e-02   3.5341374e-02   9.3743692e-02
  -3.2518491e-02  -3.7730785e-04   2.6570369e-03   2.0047376e-02  -1.9189948e-03  -3.7141045e-02  -2.2154677e-02  -1.5187325e-02  -5.1045678e-02  -7.3313472e-02   5.3927775e-04   6.7060961e-02   7.8148576e-02   1.3220478e-02   5.4660212e-02   5.6632633e-03   4.0223115e-02  -7.5649118e-03  -7.9311097e-02   7.8118897e-02  -8.3755561e-02   1.9246559e-01  -6.5286301e-02
  -1.0583085e-02   4.4007412e-03  -9.1350100e-03  -8.4618606e-03   1.7799504e-02  -1.2950402e-02  -3.8586833e-04   3.9010650e-03  -1.5064423e-03   3.0354809e-02   4.4255600e-02   4.1358497e-02  -5.8920825e-03  -3.2342435e-02   2.0224867e-01  -4.8321065e-02  -1.0650566e-01  -6.7301446e-02   3.4982795e-02   2.0072669e-01   1.2717340e-01   2.0615318e-01   3.8639926e-02
   2.0383068e-03  -7.5142564e-03  -1.0988951e-02  -1.7889862e-02   8.8044885e-03  -1.5002141e-02  -5.1997619e-02   6.1406649e-02  -1.2821056e-01   4.2737418e-02  -1.5249782e-01  -7.9179966e-03   7.3643084e-02  -3.3987022e-01   4.2597606e-01   3.4508957e-01  -3.8051312e-01   4.4341458e-02  -2.3881009e-01   1.8248649e-01  -1.3038294e-01   7.2652407e-02  -1.4974033e-01
   6.1858113e-03   8.9624438e-04  -6.9721660e-03   8.0459953e-03   3.7622196e-02   6.0732798e-03   6.3298280e-02  -6.4837772e-03  -1.2059010e-01   1.3750016e-02  -1.0741637e-01   1.8048999e-02  -7.8285080e-03  -1.7498243e-01   2.2392546e-01   2.9870632e-01  -2.3235057e-01  -7.8849174e-03  -2.6405358e-01   2.8601239e-01  -1.4881598e-01  -2.0459119e-01  -2.2134610e-01
   7.8411439e-03  -1.7795309e-02  -8.6761271e-03   6.2088445e-03   4.5134288e-02  -9.6265351e-03   1.1270167e-01  -1.2370665e-01  -8.8663720e-02   2.6628377e-03   6.7992383e-02  -2.0036349e-02  -1.9471637e-01   1.1087545e-01  -1.8127248e-01  -1.8702229e-01   1.0984346e-01  -1.2438082e-01  -1.0076502e-01   3.0863670e-02   1.5330916e-01   3.8377669e-02   5.9709277e-02
  -9.4045484e-03   2.3121096e-03  -6.4081603e-03  -1.8080968e-02   4.1521505e-02   7.6209651e-02   5.4857523e-02  -3.5338460e-02   1.1792064e-01  -1.0555556e-01  -5.4638978e-02  -2.1349324e-03   1.8996141e-01   1.3050786e-02   6.4730437e-02   2.5323467e-01  -1.9853301e-02   3.0721990e-02   9.8691110e-02  -5.8796278e-01  -2.9236581e-01  -7.6495721e-02  -4.0313855e-02
  -7.2190666e-03  -3.5023783e-04   3.2132084e-02  -2.5960964e-03  -4.6135930e-03  -4.5342209e-02  -9.0237087e-02   6.8653559e-02  -4.2997173e-02   2.5927430e-02   6.9487172e-02   1.7127919e-02   1.0175468e-01  -1.4242296e-01  -1.3157363e-03  -1.5865506e-01   3.7093372e-02   1.2749359e-01  -1.2200445e-01   3.5617722e-01   1.1138921e-01  -6.5259248e-02   5.0171259e-02
  -9.7538466e-03   4.4597328e-03  -7.0746556e-03  -1.3521658e-02  -1.0538009e-02  -7.2126750e-02  -4.2585005e-02  -6.6983594e-02   1.0163224e-01   2.7149089e-02  -2.3125435e-01  -1.3804658e-01  -1.3927740e-01   8.2723416e-02  -1.4036142e-01  -6.2794098e-03  -3.2034287e-02   4.1640749e-03  -5.6498347e-02   9.3469253e-03  -1.4481291e-01  -1.2346840e-01  -4.9732128e-03
  -8.9864440e-03   2.5710990e-02   2.4456439e-02  -2.8584178e-02  -7.4691331e-03   4.2099539e-02  -1.6153585e-02  -3.0321116e-02   3.8582513e-02   6.8119534e-02   7.7548381e-02  -7.1165472e-02   3.9956380e-02   3.2546926e-03  -8.9309873e-02   5.4183970e-02  -8.0260479e-02   1.2182263e-01   1.9167117e-01  -3.4073001e-02  -1.7142614e-02   1.0296081e-01   2.8498456e-01
   1.2461444e-02   2.6196545e-03  -3.5067739e-03   8.6139413e-04   1.0462348e-02   1.6890405e-03   1.9602933e-02  -1.2212779e-02   2.5299837e-03   2.9952311e-03   5.4970228e-02   7.0753127e-02   2.7666133e-02   8.4038420e-03   6.7933393e-02   1.6839168e-02   1.9834259e-02  -6.2244192e-02   1.1084536e-01   1.0342376e-01  -4.4000569e-02  -6.8879874e-02   1.1565956e-01
  -2.6517853e-02  -1.9718321e-03   2.3373960e-03   1.7511284e-02  -2.0925296e-03  -2.9234817e-02  -1.7181759e-02   1.0302675e-03  -6.1174821e-02  -6.9806437e-02   5.1223549e-03   6.3290831e-02   8.0100584e-02   7.7904326e-03   7.9694366e-02   9.5447196e-03   5.2361904e-02  -2.5012935e-02  -5.5288302e-02   1.0610959e-01  -5.0995846e-02   1.9044418e-01  -1.0806365e-01
  -9.0259209e-03   3.1928343e-03  -8.3452231e-03  -9.3063556e-03   1.7602090e-02  -1.3222774e-02  -1.7368400e-03  -4.0277860e-03  -1.9587746e-02   2.8812629e-02   4.2514842e-02   2.1134186e-02   9.6947101e-03  -2.6835269e-02   1.7697993e-01  -5.7437657e-02  -8.9301357e-02  -3.9395313e-02   1.2349111e-02   2.0120807e-01   1.1883558e-01   1.8144937e-01  -1.5079752e-02
   3.0303644e-03  -7.6697326e-03  -9.0767653e-03  -1.4346191e-02   1.1924045e-02  -1.6289379e-02  -4.2878993e-02   5.5795460e-02  -1.3331463e-01   3.8895488e-02  -1.4100083e-01  -1.2252317e-02   6.0081598e-02  -3.2752140e-01   3.8494437e-01   3.1802533e-01  -3.6736637e-01   4.8809903e-02  -2.3061898e-01   1.9244152e-01  -1.1956219e-01   5.5257680e-02  -1.4468183e-01
   5.6079483e-03   2.2714544e-03  -6.6426595e-03   6.6628105e-03   3.3876668e-02   3.8477980e-03   5.8862851e-02  -7.5094109e-03  -1.1703119e-01   2.5378099e-02  -9.3416041e-02   1.6675471e-02  -1.1251529e-03  -1.7953330e-01   2.3221763e-01   2.7659917e-01  -2.6032530e-01  -3.0343045e-03  -2.6929167e-01   2.9883711e-01  -1.8670110e-01  -2.3896605e-01  -2.3542043e-01
   6.4871801e-03  -1.5184624e-02  -8.5724965e-03   8.7866333e-03   4.2338885e-02  -6.2010463e-03   1.1388378e-01  -1.1719232e-01  -7.6341148e-02   4.9796345e-03   7.0481632e-02  -7.1879152e-03  -2.0312760e-01   1.2544962e-01  -1.8714932e-01  -1.6206358e-01   1.0639876e-01  -1.3135780e-01  -6.7770913e-02   6.2653488e-02   1.4177500e-01   5.0059083e-02   8.3925103e-02
  -1.1456661e-02  -6.2972727e-05  -6.1592618e-03  -2.1828999e-02   4.1056506e-02   7.0060116e-02   5.2612026e-02  -2.8969019e-02   1.3376698e-01  -1.1246061e-01  -5.9225686e-02  -9.2975731e-04   1.7592681e-01   1.8641014e-02   1.0741274e-01   2.3743952e-01  -1.7940490e-02   1.6013670e-02   1.0269431e-01  -5.5076730e-01  -2.5171621e-01  -3.2781512e-02  -3.0506531e-02
  -6.5903218e-03   1.2817823e-03   3.2220820e-02   2.1342314e-04  -1.0096175e-02  -4.8401448e-02  -1.0113730e-01   8.1778163e-02  -5.3512388e-02   3.4688552e-02   7.9195322e-02   2.1165565e-02   8.9198438e-02  -1.5801336e-01  -3.8734529e-03  -1.5231848e-01  -6.5981166e-03   1.0867360e-01  -8.6408931e-02   4.1065797e-01   1.3378476e-01  -5.4779296e-02   4.6451379e-02
  -9.2621417e-03   3.0476407e-03  -1.0046008e-02  -1.8564626e-02  -7.6152747e-03  -6.9743313e-02  -4.5723054e-02  -6.3484438e-02   1.0207333e-01  -2.9455372e-03  -2.2972404e-01  -1.1662777e-01  -1.1720985e-01   6.4128884e-02  -1.2404017e-01  -4.0113653e-02   6.8272310e-03   1.5911660e-03  -5.5325343e-02   1.9338274e-03  -9.2196721e-02  -9.4013658e-02  -1.0758127e-02
  -7.3396610e-03   2.5540294e-02   2.3408825e-02  -2.3757131e-02   2.8294494e-04   3.5146907e-02  -1.5238787e-02  -2.4679027e-02   4.2105301e-02   5.1761277e-02   7.8421374e-02  -2.9763617e-02   3.1856896e-02   3.0543929e-03  -7.0752888e-02   5.7246131e-02  -1.2048608e-01   1.4013749e-01   2.7416637e-01  -1.8378710e-02   1.8459147e-02   9.3360494e-02   2.6232019e-01
   1.1997832e-02   2.9799795e-03  -5.8168826e-03  -7.4183761e-04   1.2822527e-02  -7.4718373e-04   3.1866299e-02  -5.4991617e-04   1.4845708e-02  -3.4810605e-03   4.2451513e-02   7.8432326e-02   8.0691852e-03   2.8473186e-02   6.7913062e-02   4.4076166e-02   2.1400518e-02  -5.2320482e-02   1.3803117e-01   1.3093939e-01  -4.3120519e-02  -1.3651936e-01   1.2452195e-01
  -1.9733700e-02  -4.4891664e-03   5.1395454e-04   1.4776972e-02  -9.1514488e-04  -2.3000706e-02  -1.1528724e-02   1.6172039e-02  -6.5793898e-02  -6.4695085e-02   3.9390146e-03   6.0645283e-02   7.3208165e-02   2.7543356e-03   9.9494631e-02   7.2923001e-03   6.3820332e-02  -4.1494975e-02  -3.9226086e-02   1.2449595e-01  -1.6483460e-02   1.7783512e-01  -1.4535980e-01
  -7.1086586e-03   2.1442192e-03  -8.0719634e-03  -9.3862083e-03   1.6264399e-02  -1.2273545e-02  -2.6253150e-03  -1.1698978e-02  -3.6203330e-02   2.5918628e-02   3.7866885e-02   2.2738543e-03   2.2254064e-02  -1.9097028e-02   1.5210265e-01  -6.0835262e-02  -7.0988460e-02  -1.3620435e-02  -7.7012853e-03   1.9438869e-01   1.0796209e-01   1.5000611e-01  -6.3313743e-02
   4.0135664e-03  -7.7752586e-03  -7.1711297e-03  -1.0750212e-02   1.4990495e-02  -1.7224083e-02  -3.3932631e-02   4.9904421e-02  -1.3833696e-01   3.5961295e-02  -1.2946723e-01  -1.6929765e-02   4.8264282e-02  -3.1697566e-01   3.4284116e-01   2.8781694e-01  -3.5515474e-01   5.4742075e-02  -2.2480883e-01   1.9796259e-01  -1.0960886e-01   3.5065250e-02  -1.3951739e-01
   5.1401659e-03   3.6403700e-03  -6.3320476e-03   4.9705520e-03   3.1355794e-02   1.3816895e-03   5.5493748e-02  -8.3068086e-03  -1.1624702e-01   3.7769407e-02  -8.0861177e-02   1.4896507e-02   1.6564867e-03  -1.8231659e-01   2.3755424e-01   2.4980142e-01  -2.8616604e-01   5.4697634e-04  -2.7236592e-01   3.1002931e-01  -2.1595553e-01  -2.6287133e-01  -2.4243820e-01
   5.3322357e-03  -1.2157934e-02  -7.3508607e-03   1.1458858e-02   3.8816646e-02  -1.0750119e-03   1.1296491e-01  -1.0338366e-01  -5.3606313e-02   1.7174981e-03   6.7490078e-02   6.6624522e-03  -1.9767860e-01   1.4191497e-01  -1.9318570e-01  -1.2501135e-01   1.0283826e-01  -1.2956140e-01  -5.8823622e-03   1.0057784e-01   1.3098630e-01   5.3962985e-02   1.0212895e-01
  -1.3293124e-02  -2.2741361e-03  -6.8757626e-03  -2.5305089e-02   3.9320384e-02   6.3853688e-02   5.0878769e-02  -2.4966209e-02   1.4796348e-01  -1.1558838e-01  -6.4437485e-02   2.9154389e-03   1.5453669e-01   2.8800382e-02   1.5513872e-01   2.2152487e-01  -1.8020019e-02  -4.7826355e-03   1.0420772e-01  -5.1699778e-01  -2.0776830e-01   1.0346104e-02  -1.9175991e-02
  -5.2292463e-03   3.1254005e-03   3.0251853e-02   2.9426254e-03  -1.6530610e-02  -4.9953257e-02  -1.1147073e-01   9.2985513e-02  -6.2859676e-02   4.7869490e-02   8.1588326e-02   2.3252734e-02   7.1512087e-02  -1.6745546e-01  -7.2652991e-03  -1.3887768e-01  -5.5120436e-02   8.1548450e-02  -4.5041692e-02   4.4559449e-01   1.4836310e-01  -3.8552444e-02   4.5124206e-02
  -8.4896299e-03   1.3199567e-03  -1.0693487e-02  -2.0513231e-02  -5.3698093e-03  -6.4401528e-02  -4.6719202e-02  -5.6280807e-02   9.6419436e-02  -2.9655474e-02  -2.1709442e-01  -9.3166681e-02  -9.2016428e-02   4.3673671e-02  -1.0658479e-01  -6.9803832e-02   4.1358231e-02   1.4517712e-03  -5.5145189e-02  -8.7409130e-03  -3.7982819e-02  -5.7094217e-02  -2.3206816e-02
  -4.4252585e-03   2.4317776e-02   2.1466477e-02  -1.9646595e-02   7.1445832e-03   2.9839001e-02  -1.2827375e-02  -1.9899513e-02   4.4345424e-02   3.7634439e-02   7.9736548e-02   5.6369224e-03   1.8901693e-02   1.3082898e-03  -5.0413730e-02   5.5959539e-02  -1.5187018e-01   1.5667213e-01   3.3501058e-01  -6.3017817e-03   5.4149445e-02   6.8881446e-02   2.3398795e-01
   1.0703220e-02   3.5185525e-03  -6.7449155e-03  -1.5326388e-03   1.2994422e-02  -2.8206520e-03   3.8849861e-02   8.9813786e-03   2.0326624e-02  -3.9145150e-03   3.2188551e-02   7.7197973e-02  -8.0693641e-03   4.2863417e-02   6.1020493e-02   6.0129124e-02   1.2767846e-02  -3.7158975e-02   1.4478953e-01   1.3827277e-01  -4.6985954e-02  -1.6464169e-01   1.2023753e-01
  -1.2974371e-02  -7.5257254e-03  -2.1551557e-03   1.2001272e-02   1.0204597e-03  -1.8231578e-02  -5.7124112e-03   2.9228563e-02  -6.5626935e-02  -5.7882352e-02  -1.6155730e-03   5.7765650e-02   5.9667304e-02  -1.8625816e-03   1.1281202e-01   5.6070439e-04   7.5195062e-02  -5.6824142e-02  -3.3720102e-02   1.3255364e-01   1.5779109e-02   1.5733291e-01  -1.7291266e-01
  -4.9906265e-03   1.3141960e-03  -8.2918565e-03  -8.7104852e-03   1.3648447e-02  -1.0515992e-02  -3.2251521e-03  -1.8503355e-02  -5.0780261e-02   2.2252586e-02   3.1342798e-02  -1.4719764e-02   3.0766864e-02  -9.6712424e-03   1.2870913e-01  -5.9740372e-02  -5.3350184e-02   8.9370904e-03  -2.4056680e-02   1.8391616e-01   9.5636567e-02   1.1465574e-01  -1.0384956e-01
   4.9665469e-03  -7.8401798e-03  -5.3990326e-03  -7.1636151e-03   1.7991148e-02  -1.7901644e-02  -2.4987910e-02   4.3578264e-02  -1.4352009e-01   3.4103320e-02  -1.1796476e-01  -2.1983218e-02   3.7706448e-02  -3.0775920e-01   2.9987292e-01   2.5456763e-01  -3.4379377e-01   6.1405623e-02  -2.2138450e-01   1.9909049e-01  -1.0018821e-01   1.3265038e-02  -1.3396330e-01
   4.8063439e-03   4.9533572e-03  -6.0832717e-03   2.9928416e-03   2.9934275e-02  -1.2557889e-03   5.3113823e-02  -8.8722488e-03  -1.1825405e-01   5.0564288e-02  -6.9940635e-02   1.2424055e-02   1.7157531e-03  -1.8348044e-01   2.3934117e-01   2.1889172e-01  -3.0905772e-01   3.8748744e-03  -2.7421276e-01   3.1814683e-01  -2.3692384e-01  -2.7709684e-01  -2.4415428e-01
   4.4839736e-03  -9.4562702e-03  -5.3894319e-03   1.3704989e-02   3.5591857e-02   4.5067030e-03   1.1120671e-01  -8.6343929e-02  -2.6617858e-02  -5.7923600e-03   6.1537403e-02   1.9139356e-02  -1.8200007e-01   1.5752512e-01  -1.9880087e-01  -8.7159687e-02   1.0042977e-01  -1.2130964e-01   6.8359034e-02   1.3878777e-01   1.2413065e-01   5.0565702e-02   1.1204276e-01
  -1.4808539e-02  -4.2348650e-03  -8.2971265e-03  -2.8512405e-02   3.7310293e-02   5.8192947e-02   5.0191532e-02  -2.4628252e-02   1.5866077e-01  -1.1582915e-01  -6.9152030e-02   7.3455583e-03   1.3097432e-01   4.1782613e-02   2.0290023e-01   2.0522668e-01  -1.7187953e-02  -2.6275092e-02   9.9804416e-02  -4.9077744e-01  -1.6432642e-01   4.8767021e-02  -9.1899761e-03
  -3.2591024e-03   5.0434285e-03   2.7039197e-02   5.3805469e-03  -2.2795603e-02  -5.0022404e-02  -1.1998899e-01   1.0087328e-01  -7.0752155e-02   6.3323161e-02   7.6522170e-02   2.2772052e-02   5.3300629e-02  -1.7108357e-01  -1.4809093e-02  -1.2032914e-01  -9.8965142e-02   5.3187856e-02  -4.9533049e-03   4.5588264e-01   1.5085065e-01  -2.2351067e-02   4.4933478e-02
  -7.5790097e-03  -5.5156169e-04  -9.5819775e-03  -1.9879269e-02  -3.9314434e-03  -5.6487734e-02  -4.5952428e-02  -4.6512632e-02   8.5407737e-02  -5.1879161e-02  -1.9554450e-01  -6.9803948e-02  -6.5497690e-02   2.2718098e-02  -8.9964710e-02  -9.3469976e-02   6.9837300e-02   2.8104098e-03  -5.5811671e-02  -2.1631183e-02   1.3536301e-02  -1.6139799e-02  -4.1631524e-02
  -8.8234738e-04   2.2371216e-02   1.8972087e-02  -1.6185013e-02   1.2698876e-02   2.5835175e-02  -9.6581082e-03  -1.6641547e-02   4.4656040e-02   2.6181454e-02   8.1615677e-02   3.3736482e-02   2.1970865e-03  -1.0585065e-03  -3.0419778e-02   5.1122785e-02  -1.7597729e-01   1.7147538e-01   3.7379395e-01   1.5092680e-03   8.6268308e-02   3.2880322e-02   2.0320207e-01
   8.8385513e-03   4.1781003e-03  -6.2563546e-03  -1.3925493e-03   1.1494075e-02  -4.2488213e-03   4.0539294e-02   1.5488216e-02   2.0150928e-02   1.3937350e-03   2.4118504e-02   6.9164052e-02  -1.9771554e-02   5.2402394e-02   4.9159559e-02   6.5789920e-02  -3.9910419e-03  -1.8614502e-02   1.3565672e-01   1.2787163e-01  -5.5143971e-02  -1.5662639e-01   1.0441630e-01
  -6.8735543e-03  -1.0660348e-02  -5.0913777e-03   9.3359890e-03   3.2116560e-03  -1.4621406e-02  -2.0923534e-04   3.9543445e-02  -6.1763963e-02  -4.9526078e-02  -1.0032656e-02   5.3588880e-02   4.2178532e-02  -5.9933683e-03   1.1881784e-01  -8.5070406e-03   8.6514001e-02  -7.1130341e-02  -3.9421142e-02   1.3048551e-01   4.2225503e-02   1.3212968e-01  -1.8801541e-01
  -2.8222979e-03   7.4195178e-04  -8.9365238e-03  -7.3454926e-03   9.8138500e-03  -8.2958390e-03  -3.5927885e-03  -2.4089550e-02  -6.3039663e-02   1.8286834e-02   2.3935726e-02  -2.9703112e-02   3.4942560e-02   7.0758184e-04   1.0731733e-01  -5.5517373e-02  -3.7756442e-02   2.7866402e-02  -3.6370094e-02   1.7243370e-01   8.2762701e-02   7.7969207e-02  -1.3520330e-01
   5.8643244e-03  -7.8582810e-03  -3.8464204e-03  -3.6338911e-03   2.0895915e-02  -1.8376916e-02  -1.5922208e-02   3.6838587e-02  -1.4880571e-01   3.3316913e-02  -1.0668398e-01  -2.7346198e-02   2.8211700e-02  -2.9933135e-01   2.5622616e-01   2.1884026e-01  -3.3301754e-01   6.8294757e-02  -2.1977557e-01   1.9617782e-01  -9.1169085e-02  -9.1189812e-03  -1.2779462e-01
   4.6153774e-03   6.1610782e-03  -5.9379182e-03   7.8646710e-04   2.9416911e-02  -4.0175051e-03   5.1558173e-02  -9.1357557e-03  -1.2287945e-01   6.3360441e-02  -6.0792631e-02   9.1025651e-03   2.3655549e-05  -1.8322078e-01   2.3724064e-01   1.8457036e-01  -3.2842337e-01   7.6347181e-03  -2.7538964e-01   3.2238552e-01  -2.4993581e-01  -2.8246414e-01  -2.4201137e-01
   3.9947898e-03  -7.6533747e-03  -3.1778633e-03   1.5089483e-02   3.3323804e-02   9.3085142e-03   1.0967773e-01  -6.9991841e-02  -1.4816054e-03  -1.5317249e-02   5.4874907e-02   2.8572061e-02  -1.6188435e-01   1.7001279e-01  -2.0287900e-01  -5.7999142e-02   9.9561071e-02  -1.1012205e-01   1.3841403e-01   1.7204142e-01   1.2345800e-01   4.2167070e-02   1.1365608e-01
  -1.5935101e-02  -5.8954396e-03  -1.0119759e-02  -3.1459129e-02   3.5829261e-02   5.3454808e-02   5.0926637e-02  -2.8642064e-02   1.6430737e-01  -1.1420500e-01  -7.2251278e-02   1.0602294e-02   1.0937425e-01   5.5772248e-02   2.4644540e-01   1.8810283e-01  -1.3207035e-02  -4.3852925e-02   8.6971146e-02  -4.7390112e-01  -1.2390416e-01   7.9346024e-02  -2.7537400e-03
  -8.5698326e-04   6.9078165e-03   2.3405899e-02   7.4194850e-03  -2.7936722e-02  -4.8797350e-02  -1.2583422e-01   1.0464456e-01  -7.7037831e-02   7.8974914e-02   6.4683157e-02   1.9442589e-02   3.8614828e-02  -1.6999511e-01  -2.9195939e-02  -9.8922546e-02  -1.3050094e-01   2.9729433e-02   2.8037728e-02   4.3979079e-01   1.3894376e-01  -1.1048372e-02   4.4734084e-02
  -6.6216307e-03  -2.4093851e-03  -7.2906527e-03  -1.7261878e-02  -3.2844775e-03  -4.6533001e-02  -4.3730994e-02  -3.5356512e-02   7.0028616e-02  -6.9049794e-02  -1.6741788e-01  -4.8193416e-02  -3.9029604e-02   2.5082977e-03  -7.5538063e-02  -1.0977329e-01   9.1397824e-02   4.3660303e-03  -5.7028735e-02  -3.5530438e-02   5.8766792e-02   2.5403285e-02  -6.4354401e-02
   2.7576090e-03   2.0036404e-02   1.6231592e-02  -1.3293037e-02   1.6659285e-02   2.2832640e-02  -6.4140130e-03  -1.5264313e-02   4.2399243e-02   1.7555242e-02   8.4172118e-02   5.3744434e-02  -1.6693948e-02  -3.1482288e-03  -1.2528537e-02   4.3854837e-02  -1.9445633e-01   1.8424649e-01   3.9174175e-01   5.0770402e-03   1.1165361e-01  -1.0435653e-02   1.7246135e-01
   6.7182222e-03   4.9027601e-03  -4.5765004e-03  -4.4932111e-04   8.9521959e-03  -4.9355730e-03   3.7671856e-02   1.8562965e-02   1.6040565e-02   1.1204946e-02   1.7837547e-02   5.6794143e-02  -2.6740307e-02   5.8106461e-02   3.4378198e-02   6.2977149e-02  -2.5631489e-02   1.3306769e-03   1.1614624e-01   1.0374818e-01  -6.6342798e-02  -1.2046727e-01   8.0073581e-02
  -1.8726661e-03  -1.3494061e-02  -7.8291866e-03   6.9100404e-03   5.2561189e-03  -1.1819220e-02   4.5863223e-03   4.6768730e-02  -5.5503023e-02  -3.9984759e-02  -1.9815611e-02   4.7343425e-02   2.3641638e-02  -9.5143952e-03   1.1716672e-01  -1.7595292e-02   9.7390154e-02  -8.4784838e-02  -5.5413183e-02   1.1928842e-01   5.9958737e-02   1.0556464e-01  -1.8955072e-01
  -7.3889747e-04   4.4758621e-04  -9.9057039e-03  -5.4067650e-03   4.9670998e-03  -5.8978506e-03  -3.6797353e-03  -2.8316464e-02  -7.2950002e-02   1.4416749e-02   1.6531355e-02  -4.2777750e-02   3.4983746e-02   1.1206262e-02   8.8031324e-02  -4.9552589e-02  -2.5205459e-02   4.3241960e-02  -4.4930219e-02   1.6168242e-01   7.0151733e-02   4.2289234e-02  -1.5648630e-01
   6.6805380e-03  -7.8185837e-03  -2.5559686e-03  -1.9678180e-04   2.3676008e-02  -1.8669879e-02  -6.6545103e-03   2.9848489e-02  -1.5389124e-01   3.3419401e-02  -9.5879147e-02  -3.2880245e-02   1.9893914e-02  -2.9114749e-01   2.1205742e-01   1.8148129e-01  -3.2239436e-01   7.5139044e-02  -2.1897206e-01   1.8986570e-01  -8.2562974e-02  -3.1312692e-02  -1.2089137e-01
   4.5619570e-03   7.2174110e-03  -5.9336793e-03  -1.5632273e-03   2.9563610e-02  -6.8701959e-03   5.0598341e-02  -8.9956498e-03  -1.2978118e-01   7.5717956e-02  -5.3485092e-02   4.8838394e-03  -2.6240551e-03  -1.8178529e-01   2.3113791e-01   1.4762075e-01  -3.4390245e-01   1.2207303e-02  -2.7612700e-01   3.2250137e-01  -2.5538787e-01  -2.7989582e-01  -2.3713591e-01
   3.8638400e-03  -7.0674338e-03  -1.2097689e-03   1.5337986e-02   3.2247917e-02   1.2343181e-02   1.0909614e-01  -5.7457732e-02   1.6860062e-02  -2.4304447e-02   4.9095752e-02   3.4134917e-02  -1.4376561e-01   1.7801617e-01  -2.0417318e-01  -4.3631822e-02   1.0000309e-01  -9.9819660e-02   1.9071244e-01   1.9638982e-01   1.2980916e-01   3.2181362e-02   1.0874142e-01
  -1.6648145e-02  -7.2404445e-03  -1.2067645e-02  -3.4148108e-02   3.5376350e-02   4.9805014e-02   5.3225103e-02  -3.6969403e-02   1.6384820e-01  -1.1166110e-01  -7.2756298e-02   1.1488472e-02   9.2317173e-02   6.9100641e-02   2.8281406e-01   1.6977293e-01  -5.1228056e-03  -5.4430822e-02   6.4722137e-02  -4.6583663e-01  -8.7616292e-02   1.0035551e-01  -1.0755111e-03
   1.7675983e-03   8.6019918e-03   2.0063460e-02   9.0543842e-03  -3.1302372e-02  -4.6598628e-02  -1.2860221e-01   1.0419149e-01  -8.1626770e-02   9.3075586e-02   4.7433319e-02   1.3476245e-02   3.0264788e-02  -1.6577257e-01  -5.1884352e-02  -7.6845964e-02  -1.4490174e-01   1.5521789e-02   4.9939552e-02   3.9893921e-01   1.1250519e-01  -8.0852253e-03   4.3670788e-02
  -5.6729728e-03  -4.1155290e-03  -4.3736380e-03  -1.3303394e-02  -3.3050259e-03  -3.5209921e-02  -4.0333117e-02  -2.3970417e-02   5.1544347e-02  -8.1029259e-02  -1.3515481e-01  -2.9532758e-02  -1.3637776e-02  -1.5906380e-02  -6.4082270e-02  -1.1801506e-01   1.0602298e-01   4.7260049e-03  -5.8595177e-02  -4.9179256e-02   9.4910520e-02   6.4251598e-02  -8.8845986e-02
   6.0826114e-03   1.7630016e-02   1.3496897e-02  -1.0889896e-02   1.8872640e-02   2.0549681e-02  -3.6865971e-03  -1.5867704e-02   3.7087249e-02   1.1683451e-02   8.7439764e-02   6.5383732e-02  -3.5976800e-02  -4.1141360e-03   1.9418577e-03   3.5396799e-02  -2.0886605e-01   1.9448767e-01   3.9134550e-01   4.9815047e-03   1.2782807e-01  -5.6448120e-02   1.4351551e-01
   4.6568775e-03   5.6313205e-03  -2.0998371e-03   9.9332343e-04   5.9901960e-03  -4.9975535e-03   3.1458429e-02   1.8210523e-02   9.9479576e-03   2.3589404e-02   1.2711907e-02   4.2426512e-02  -2.9269248e-02   6.0830999e-02   1.8689728e-02   5.4159455e-02  -4.8224025e-02   2.0639751e-02   9.1670107e-02   7.0801542e-02  -7.8813779e-02  -6.6887132e-02   5.1194896e-02
   1.7784937e-03  -1.5684840e-02  -1.0035621e-02   4.8141724e-03   6.8586374e-03  -9.4839412e-03   8.3877573e-03   5.0817273e-02  -4.8176031e-02  -2.9755512e-02  -2.9604058e-02   3.8556160e-02   6.8370136e-03  -1.2255968e-02   1.0803808e-01  -2.4532721e-02   1.0717859e-01  -9.8282495e-02  -7.9611256e-02   1.0058845e-01   6.6943984e-02   8.0795597e-02  -1.7788164e-01
   1.1441904e-03   4.3366430e-04  -1.1081443e-02  -3.0474925e-03  -5.9393958e-04  -3.5513917e-03  -3.3597667e-03  -3.1184439e-02  -8.0656581e-02   1.0988179e-02   9.8476253e-03  -5.4164519e-02   3.1364488e-02   2.0985015e-02   7.0715473e-02  -4.3129093e-02  -1.6391817e-02   5.5411564e-02  -5.0449440e-02   1.5265026e-01   5.8582502e-02   9.7666993e-03  -1.6727472e-01
   7.3894950e-03  -7.7172401e-03  -1.5325091e-03   3.1188049e-03   2.6318936e-02  -1.8779506e-02   2.8657485e-03   2.2857779e-02  -1.5832575e-01   3.4080965e-02  -8.5804271e-02  -3.8401991e-02   1.3111446e-02  -2.8272440e-01   1.6750978e-01   1.4341119e-01  -3.1138129e-01   8.1856198e-02  -2.1774604e-01   1.8103484e-01  -7.4443169e-02  -5.2821407e-02  -1.1324291e-01
   4.6287834e-03   8.0825179e-03  -6.1014127e-03  -3.9489999e-03   3.0115854e-02  -9.7852446e-03   4.9971953e-02  -8.3536902e-03  -1.3848053e-01   8.7171673e-02  -4.8006008e-02  -2.0476871e-04  -5.5521974e-03  -1.7947298e-01   2.2109175e-01   1.0887120e-01  -3.5531542e-01   1.7725470e-02  -2.7640854e-01   3.1869462e-01  -2.5381663e-01  -2.7047623e-01  -2.3035756e-01
   4.0461938e-03  -7.7273519e-03   1.1738638e-04   1.4381081e-02   3.2220822e-02   1.3048768e-02   1.0977027e-01  -5.0688993e-02   2.5385437e-02  -3.0477408e-02   4.4992085e-02   3.5802853e-02  -1.3314138e-01   1.8127402e-01  -2.0176701e-01  -4.6046234e-02   1.0132648e-01  -9.3602577e-02   2.1666168e-01   2.0956713e-01   1.4238528e-01   2.4207280e-02   1.0007114e-01
  -1.6968853e-02  -8.2850813e-03  -1.3933983e-02  -3.6573737e-02   3.6107844e-02   4.7232437e-02   5.6956498e-02  -4.8847322e-02   1.5686371e-01  -1.0894309e-01  -6.9939736e-02   9.4954423e-03   8.0693707e-02   8.0416111e-02   3.1058882e-01   1.5007811e-01   6.5046520e-03  -5.6788317e-02   3.3891052e-02  -4.6403812e-01  -5.5328729e-02   1.1162894e-01  -4.2542903e-03
   4.3937423e-03   1.0020905e-02   1.7531172e-02   1.0367000e-02  -3.2609836e-02  -4.3835521e-02  -1.2835113e-01   1.0006705e-01  -8.4435814e-02   1.0435051e-01   2.6621243e-02   5.6072483e-03   2.9477670e-02  -1.6020426e-01  -8.2773716e-02  -5.5994661e-02  -1.4054130e-01   1.2669620e-02   5.8820042e-02   3.3790699e-01   7.3426536e-02  -1.5189744e-02   4.1237535e-02
  -4.7674835e-03  -5.5556814e-03  -1.3259383e-03  -8.6440796e-03  -3.7941448e-03  -2.3307795e-02  -3.6045427e-02  -1.3431411e-02   3.1481762e-02  -8.8003007e-02  -1.0120786e-01  -1.4575277e-02   9.9065766e-03  -3.1731523e-02  -5.5818477e-02  -1.1817652e-01   1.1443613e-01   2.6794798e-03  -6.0534706e-02  -6.1345610e-02   1.2008246e-01   9.7405489e-02  -1.1199118e-01
   8.8016424e-03   1.5425386e-02   1.0955795e-02  -8.9025159e-03   1.9318383e-02   1.8711788e-02  -1.9516729e-03  -1.8333379e-02   2.8507251e-02   8.3264632e-03   9.1312102e-02   6.8895604e-02  -5.3864352e-02  -3.2026294e-03   1.2170737e-02   2.6916987e-02  -2.2053678e-01   2.0167848e-01   3.7598995e-01   2.2294191e-03   1.3317920e-01  -1.0058274e-01   1.1738507e-01
   2.9229789e-03   6.2956506e-03   7.0422239e-04   2.5362790e-03   3.1207553e-03  -4.7500597e-03   2.3299981e-02   1.4760810e-02   3.7753303e-03   3.6217955e-02   7.9999473e-03   2.7939399e-02  -2.8109127e-02   6.1061865e-02   3.9404694e-03   4.1864405e-02  -6.7702650e-02   3.7297663e-02   6.6763545e-02   3.4209483e-02  -9.0557876e-02  -7.4775356e-03   2.2196488e-02
   4.0064315e-03  -1.6975828e-02  -1.1515579e-02   3.0912905e-03   7.8338690e-03  -7.3306276e-03   1.1029941e-02   5.1818305e-02  -4.0984393e-02  -1.9412957e-02  -3.8276256e-02   2.7065275e-02  -5.8742607e-03  -1.4036930e-02   9.2150668e-02  -2.7572906e-02   1.1512746e-01  -1.1210044e-01  -1.0914566e-01   7.6453020e-02   6.2167043e-02   6.0508594e-02  -1.5463830e-01
   2.7339493e-03   6.8697987e-04  -1.2340398e-02  -4.4424281e-04  -6.5317951e-03  -1.4345983e-03  -2.4668188e-03  -3.2760798e-02  -8.6398521e-02   8.3134862e-03   4.3926774e-03  -6.4087130e-02   2.4657777e-02   2.9278180e-02   5.5147336e-02  -3.7317740e-02  -1.1771847e-02   6.4804196e-02  -5.3814653e-02   1.4574669e-01   4.8820955e-02  -1.7625871e-02  -1.6750715e-01
   7.9677910e-03  -7.5680097e-03  -7.5433176e-04   6.2848865e-03   2.8836753e-02  -1.8702011e-02   1.2670678e-02   1.6141420e-02  -1.6162506e-01   3.4884825e-02  -7.6658653e-02  -4.3705576e-02   8.3290518e-03  -2.7369709e-01   1.2275000e-01   1.0542526e-01  -2.9941111e-01   8.8460870e-02  -2.1490801e-01   1.7074006e-01  -6.6858513e-02  -7.3402621e-02  -1.0491360e-01
   4.7897096e-03   8.7256234e-03  -6.4625879e-03  -6.2495941e-03   3.0821771e-02  -1.2729619e-02   4.9414255e-02  -7.1461951e-03  -1.4840548e-01   9.7253043e-02  -4.4264025e-02  -6.0941889e-03  -8.1630637e-03  -1.7663085e-01   2.0727818e-01   6.9158749e-02  -3.6262812e-01   2.4144356e-02  -2.7606751e-01   3.1147078e-01  -2.4595113e-01  -2.5548834e-01  -2.2224782e-01
   4.4661145e-03  -9.3921497e-03   5.7738275e-04   1.2362694e-02   3.2838814e-02   1.1379179e-02   1.1162497e-01  -5.0316038e-02   2.3328084e-02  -3.2327478e-02   4.2628786e-02   3.4164311e-02  -1.3326704e-01   1.8058258e-01  -1.9548314e-01  -6.3243668e-02   1.0331176e-01  -9.3303897e-02   2.1355372e-01   2.1110507e-01   1.5882190e-01   2.1097690e-02   9.0544896e-02
  -1.6963142e-02  -9.0684111e-03  -1.5594992e-02  -3.8722806e-02   3.7861758e-02   4.5598719e-02   6.1725716e-02  -6.2896779e-02   1.4363829e-01  -1.0655625e-01  -6.3399905e-02   4.7968613e-03   7.3903141e-02   8.8801278e-02   3.2986235e-01   1.2915922e-01   1.9725536e-02  -5.1525749e-02  -2.8893075e-03  -4.6449944e-01  -2.6005636e-02   1.1445161e-01  -1.1361447e-02
   6.8078616e-03   1.1072789e-02   1.6097930e-02   1.1500905e-02  -3.1946685e-02  -4.0953189e-02  -1.2556088e-01   9.3360336e-02  -8.5347089e-02   1.1204928e-01   4.3759834e-03  -2.9945462e-03   3.5895065e-02  -1.5502075e-01  -1.2017528e-01  -3.7814524e-02  -1.1888564e-01   2.0971306e-02   5.4745443e-02   2.6355263e-01   2.5216299e-02  -3.2351642e-02   3.7249901e-02
  -3.9283211e-03  -6.6437965e-03   1.4423932e-03  -3.8770933e-03  -4.5067509e-03  -1.1681507e-02  -3.1185866e-02  -4.6685743e-03   1.1574884e-02  -9.0384325e-02  -6.7930442e-02  -3.6350061e-03   3.0981626e-02  -4.4459838e-02  -5.0442684e-02  -1.1088878e-01   1.1791215e-01  -2.5724198e-03  -6.3120658e-02  -7.0891985e-02   1.3345008e-01   1.2222258e-01  -1.3047165e-01
   1.0739199e-02   1.3631740e-02   8.7291823e-03  -7.2704504e-03   1.8101863e-02   1.7047391e-02  -1.5529574e-03  -2.2362922e-02   1.6804120e-02   7.1239794e-03   9.5507316e-02   6.5033123e-02  -6.8805389e-02   1.8867300e-04   1.7869950e-02   1.9346121e-02  -2.3046920e-01   2.0543767e-01   3.4959308e-01  -1.8927555e-03   1.2713076e-01  -1.3873902e-01   9.4412405e-02
   1.7052800e-03   6.8235347e-03   3.3770320e-03   3.7671014e-03   6.8360363e-04  -4.6497042e-03   1.4539092e-02   8.7797639e-03  -8.6139512e-04   4.6677212e-02   2.9804468e-03   1.4575859e-02  -2.4309218e-02   5.8861295e-02  -8.2882197e-03   2.8317411e-02  -8.0418157e-02   4.9405432e-02   4.4650379e-02  -1.0958136e-03  -9.9611943e-02   4.6962133e-02  -2.6692374e-03
   4.8881541e-03  -1.7215716e-02  -1.2203723e-02   1.7345401e-03   8.1039852e-03  -5.1615361e-03   1.2472920e-02   5.0079004e-02  -3.4866500e-02  -9.5537233e-03  -4.5015143e-02   1.3028731e-02  -1.2800799e-02  -1.4717683e-02   7.0741601e-02  -2.5608810e-02   1.2051726e-01  -1.2655550e-01  -1.4071339e-01   4.9187633e-02   4.5751561e-02   4.6684494e-02  -1.2243630e-01
   3.9602347e-03   1.1805852e-03  -1.3562551e-02   2.2193273e-03  -1.2511734e-02   3.2295260e-04  -8.3908299e-04  -3.3113370e-02  -9.0424193e-02   6.6714759e-03   4.4894107e-04  -7.2680896e-02   1.5433332e-02   3.5456546e-02   4.1125260e-02  -3.2903285e-02  -1.1608486e-02   7.1786981e-02  -5.5841111e-02   1.4098748e-01   4.1595360e-02  -3.8122982e-02  -1.5742356e-01
   8.3954427e-03  -7.4092125e-03  -1.8773858e-04   9.2689399e-03   3.1266300e-02  -1.8449221e-02   2.2783748e-02   9.9425370e-03  -1.6338508e-01   3.5404807e-02  -6.8552007e-02  -4.8578140e-02   5.9380651e-03  -2.6385728e-01   7.8016501e-02   6.8041496e-02  -2.8599580e-01   9.4950239e-02  -2.0954804e-01   1.6013610e-01  -5.9758598e-02  -9.2990977e-02  -9.5980956e-02
   5.0131982e-03   9.1270805e-03  -7.0275343e-03  -8.3383684e-03   3.1457402e-02  -1.5658626e-02   4.8687882e-02  -5.3672225e-03  -1.5894053e-01   1.0552065e-01  -4.2098280e-02  -1.2703937e-02  -9.9120280e-03  -1.7364969e-01   1.8993940e-01   2.9295261e-02  -3.6592406e-01   3.1311895e-02  -2.7488877e-01   3.0149489e-01  -2.3273681e-01  -2.3641489e-01  -2.1316843e-01
   5.0312361e-03  -1.1615214e-02   1.5263363e-04   9.6138606e-03   3.3590931e-02   7.7964921e-03   1.1428982e-01  -5.5749471e-02   1.2088103e-02  -2.9411542e-02   4.1569848e-02   3.0156453e-02  -1.4438556e-01   1.7754600e-01  -1.8612717e-01  -9.0084682e-02   1.0621082e-01  -9.8976776e-02   1.8439554e-01   2.0221908e-01   1.7557667e-01   2.4236470e-02   8.2425425e-02
  -1.6735887e-02  -9.6429353e-03  -1.7001369e-02  -4.0576719e-02   4.0231018e-02   4.4697071e-02   6.6920785e-02  -7.7319328e-02   1.2515322e-01  -1.0479061e-01  -5.3088834e-02  -1.8703910e-03   7.0309158e-02   9.3835926e-02   3.4196378e-01   1.0746400e-01   3.1607305e-02  -4.0707307e-02  -4.1477948e-02  -4.6246010e-01   1.8269686e-03   1.1122989e-01  -2.0668973e-02
   8.8191391e-03   1.1684852e-02   1.5823137e-02   1.2632253e-02  -2.9718819e-02  -3.8374642e-02  -1.2104963e-01   8.5500699e-02  -8.4178080e-02   1.1591242e-01  -1.7101491e-02  -1.0898413e-02   4.7861257e-02  -1.5166098e-01  -1.6105159e-01  -2.3208261e-02  -8.3967985e-02   3.8197223e-02   3.9508421e-02   1.8414345e-01  -2.7600575e-02  -5.8026223e-02   3.1770123e-02
  -3.1703591e-03  -7.3273944e-03   3.6226036e-03   4.9383072e-04  -5.1779822e-03  -1.1774035e-03  -2.6103939e-02   1.6029035e-03  -6.3500068e-03  -8.8729853e-02  -3.7440712e-02   3.3978529e-03   4.9018224e-02  -5.3876593e-02  -4.7182725e-02  -9.7335951e-02   1.1804480e-01  -1.1260666e-02  -6.6823850e-02  -7.6843273e-02   1.3535852e-01   1.3647392e-01  -1.4121615e-01
   1.1825290e-02   1.2378029e-02   6.8753348e-03  -5.9450469e-03   1.5439549e-02   1.5295576e-02  -2.6912203e-03  -2.7513010e-02   2.5062754e-03   7.6305614e-03   9.9565950e-02   5.5030427e-02  -7.9676578e-02   6.4441607e-03   1.9280893e-02   1.3260899e-02  -2.3926612e-01   2.0564309e-01   3.1626568e-01  -5.9810845e-03   1.1027943e-01  -1.6764967e-01   7.4337157e-02
   1.0953170e-03   7.1449359e-03   5.5387458e-03   4.3346317e-03  -1.1788083e-03  -5.2006300e-03   6.2760205e-03   9.8843352e-04  -2.8142369e-03   5.2786362e-02  -2.9223315e-03   2.9228942e-03  -1.9050846e-02   5.3958733e-02  -1.6759054e-02   1.5227897e-02  -8.3638737e-02   5.5304591e-02   2.7132080e-02  -3.0861858e-02  -1.0428555e-01   8.7757822e-02  -1.9897330e-02
   4.6186637e-03  -1.6370079e-02  -1.2144872e-02   6.9373636e-04   7.6903435e-03  -2.8794770e-03   1.2798190e-02   4.6051566e-02  -3.0410925e-02  -7.4751787e-04  -4.9331666e-02  -3.0834787e-03  -1.3095161e-02  -1.4262116e-02   4.5501417e-02  -1.8302283e-02   1.2278395e-01  -1.4168083e-01  -1.7088946e-01   2.1126744e-02   1.9014031e-02   4.0441018e-02  -8.4553939e-02
   4.7746503e-03   1.8762558e-03  -1.4635939e-02   4.7697705e-03  -1.8232160e-02   1.6384393e-03   1.6358201e-03  -3.2262023e-02  -9.2914755e-02   6.2897454e-03  -1.9112542e-03  -7.9934893e-02   4.2326641e-03   3.9068616e-02   2.8522118e-02  -3.0357150e-02  -1.5987681e-02   7.6586902e-02  -5.7063648e-02   1.3817866e-01   3.7530110e-02  -5.0245623e-02  -1.3754442e-01
   8.6566143e-03  -7.3057366e-03   1.9816785e-04   1.2030098e-02   3.3662069e-02  -1.8063012e-02   3.3225799e-02   4.4283945e-03  -1.6337464e-01   3.5285270e-02  -6.1493615e-02  -5.2808456e-02   6.0747210e-03  -2.5316686e-01   3.3664958e-02   3.1419798e-02  -2.7082513e-01   1.0119238e-01  -2.0122120e-01   1.5040121e-01  -5.2947040e-02  -1.1159407e-01  -8.6461649e-02
   5.2654852e-03   9.2794204e-03  -7.7946048e-03  -1.0092336e-02   3.1842552e-02  -1.8511962e-02   4.7607566e-02  -3.0811083e-03  -1.6947754e-01   1.1159639e-01  -4.1295920e-02  -1.9963932e-02  -1.0303662e-02  -1.7096006e-01   1.6934765e-01  -9.9643141e-03  -3.6538786e-01   3.9030002e-02  -2.7270625e-01   2.8945502e-01  -2.1533000e-01  -2.1489794e-01  -2.0331891e-01
   5.6450978e-03  -1.3840152e-02  -9.7173765e-04   6.5958348e-03   3.4007866e-02   3.1675193e-03   1.1722053e-01  -6.5450565e-02  -5.2202646e-03  -2.2409728e-02   4.1175635e-02   2.4794691e-02  -1.6364130e-01   1.7418134e-01  -1.7548027e-01  -1.1963423e-01   1.1077206e-01  -1.0889869e-01   1.3682477e-01   1.8552308e-01   1.8858062e-01   3.3178920e-02   7.6836766e-02
  -1.6419932e-02  -1.0061441e-02  -1.8155501e-02  -4.2113580e-02   4.2667276e-02   4.4313004e-02   7.1796752e-02  -9.0152669e-02   1.0300294e-01  -1.0378619e-01  -3.9298492e-02  -9.4073874e-03   6.7840793e-02   9.5605441e-02   3.4901387e-01   8.5701561e-02   3.8818868e-02  -2.7295319e-02  -7.6727336e-02  -4.5317774e-01   2.9593945e-02   1.0500820e-01  -2.9972431e-02
   1.0271905e-02   1.1812706e-02   1.6568891e-02   1.3939563e-02  -2.6559189e-02  -3.6443930e-02  -1.1585410e-01   7.8021520e-02  -8.0667164e-02   1.1608071e-01  -3.5740394e-02  -1.6638733e-02   6.2915765e-02  -1.5108289e-01  -2.0146286e-01  -1.2495785e-02  -4.1564899e-02   6.0627403e-02   1.6221690e-02   1.0838125e-01  -8.0169073e-02  -8.9519448e-02   2.5018801e-02
  -2.4978216e-03  -7.5923239e-03   5.0143967e-03   4.0901044e-03  -5.5487228e-03   7.4529420e-03  -2.1158687e-02   4.9380538e-03  -2.0535047e-02  -8.3664502e-02  -1.1477352e-02   7.0168397e-03   6.3430374e-02  -6.0038103e-02  -4.4897648e-02  -7.9108060e-02   1.1650714e-01  -2.2979249e-02  -7.2218915e-02  -7.8462576e-02   1.2737924e-01   1.3841719e-01  -1.4184341e-01
   1.2082037e-02   1.1703084e-02   5.4005510e-03  -4.8831882e-03   1.1635178e-02   1.3223423e-02  -5.4191218e-03  -3.3230014e-02  -1.3505647e-02   9.3441852e-03   1.0287762e-01   4.0538082e-02  -8.5914292e-02   1.5666328e-02   1.7121438e-02   8.8238486e-03  -2.4709238e-01   2.0249292e-01   2.7999268e-01  -8.6854655e-03   8.4451468e-02  -1.8512953e-01   5.6403276e-02
   1.0858663e-03   7.2006556e-03   6.9333182e-03   4.0082069e-03  -2.5070085e-03  -6.8395395e-03  -7.3573611e-04  -7.8046388e-03  -1.5209078e-03   5.2892221e-02  -1.0030217e-02  -6.9805416e-03  -1.3488060e-02   4.5955694e-02  -2.0651442e-02   3.7145053e-03  -7.5945082e-02   5.3737434e-02   1.4741825e-02  -5.1856644e-02  -1.0336839e-01   1.0928631e-01  -2.7229920e-02
   3.4747638e-03  -1.4522542e-02  -1.1465687e-02  -1.1101984e-04   6.6991324e-03  -4.8492707e-04   1.2198082e-02   4.0302858e-02  -2.7819199e-02   6.5068554e-03  -5.1047668e-02  -2.0522469e-02  -6.8329053e-03  -1.2796031e-02   1.8461378e-02  -6.1212136e-03   1.2161982e-01  -1.5713596e-01  -1.9639725e-01  -5.5689558e-03  -1.5572199e-02   4.1963382e-02  -4.4587883e-02
   5.1485307e-03   2.7274647e-03  -1.5458341e-02   7.0611695e-03  -2.3442930e-02   2.4744542e-03   4.9800019e-03  -3.0154315e-02  -9.3924989e-02   7.3133935e-03  -2.7794143e-03  -8.5671199e-02  -8.3898167e-03   3.9860596e-02   1.7286702e-02  -2.9857378e-02  -2.4810749e-02   7.9276053e-02  -5.7589503e-02   1.3708790e-01   3.7052361e-02  -5.2928216e-02  -1.0868422e-01
   8.7400929e-03  -7.3455108e-03   4.1934892e-04   1.4517978e-02   3.6083970e-02  -1.7622414e-02   4.4017011e-02  -3.3600419e-04  -1.6159412e-01   3.4308320e-02  -5.5404513e-02  -5.6191226e-02   8.4777006e-03  -2.4174374e-01  -9.8033453e-03  -4.6376446e-03  -2.5383774e-01   1.0684317e-01  -1.9004903e-01   1.4266328e-01  -4.6075233e-02  -1.2918358e-01  -7.6244124e-02
   5.5129578e-03   9.1872807e-03  -8.7501836e-03  -1.1401163e-02   3.1850522e-02  -2.1213755e-02   4.6057067e-02  -4.2318458e-04  -1.7946153e-01   1.1520302e-01  -4.1615652e-02  -2.7824749e-02  -8.9061173e-03  -1.6902997e-01   1.4578975e-01  -4.7950075e-02  -3.6130030e-01   4.7100316e-02  -2.6948491e-01   2.7594889e-01  -1.9506377e-01  -1.9265818e-01  -1.9277613e-01
   6.2167280e-03  -1.5512018e-02  -2.4548893e-03   3.8200618e-03   3.3775463e-02  -1.4178263e-03   1.1982514e-01  -7.7303436e-02  -2.4480568e-02  -1.2944195e-02   4.0886908e-02   1.8957781e-02  -1.8569452e-01   1.7245624e-01  -1.6600751e-01  -1.4473141e-01   1.1801299e-01  -1.1999138e-01   8.1370858e-02   1.6462461e-01   1.9405424e-01   4.5734065e-02   7.3606754e-02
  -1.6159846e-02  -1.0363301e-02  -1.9083277e-02  -4.3310063e-02   4.4596724e-02   4.4278574e-02   7.5587770e-02  -9.9551237e-02   7.9237578e-02  -1.0360849e-01  -2.2619503e-02  -1.6599952e-02   6.4610879e-02   9.4655673e-02   3.5339343e-01   6.4764108e-02   3.8278571e-02  -1.4492259e-02  -1.0313285e-01  -4.3269041e-01   5.8248154e-02   9.8921785e-02  -3.6954714e-02
   1.1055841e-02   1.1451177e-02   1.8053167e-02   1.5574378e-02  -2.3211740e-02  -3.5378074e-02  -1.1108159e-01   7.2313950e-02  -7.4485576e-02   1.1297814e-01  -4.9791776e-02  -1.8954327e-02   7.8377883e-02  -1.5363574e-01  -2.3714205e-01  -5.4261238e-03   1.7937262e-03   8.3751127e-02  -1.1168383e-02   4.4397830e-02  -1.2796953e-01  -1.2348789e-01   1.7295056e-02
  -1.9001396e-03  -7.4647867e-03   5.5250765e-03   6.6828650e-03  -5.3906772e-03   1.3635954e-02  -1.6681338e-02   5.2000847e-03  -2.9470026e-02  -7.5813150e-02   8.7275506e-03   8.0276140e-03   7.3587293e-02  -6.3224828e-02  -4.2227471e-02  -5.8028293e-02   1.1483354e-01  -3.6697952e-02  -7.9877689e-02  -7.5332005e-02   1.1221912e-01   1.2691050e-01  -1.3101766e-01
   1.1606864e-02   1.1554042e-02   4.2748492e-03  -4.0376817e-03   7.0478616e-03   1.0647495e-02  -9.6439757e-03  -3.8887312e-02  -3.0075401e-02   1.1733242e-02   1.0472548e-01   2.3522239e-02  -8.7569204e-02   2.7628516e-02   1.2477974e-02   5.7787923e-03  -2.5366236e-01   1.9650509e-01   2.4434093e-01  -8.8776900e-03   5.2632105e-02  -1.9018896e-01   3.9508742e-02
   1.5827361e-03   6.9522430e-03   7.4488019e-03   2.7153391e-03  -3.4779186e-03  -9.8202546e-03  -6.1143210e-03  -1.6756827e-02   2.9494630e-03   4.6117899e-02  -1.8334768e-02  -1.5446422e-02  -8.6087825e-03   3.4596620e-02  -1.9632132e-02  -5.6577164e-03  -5.7478510e-02   4.4037372e-02   7.0801093e-03  -6.2110819e-02  -9.6306707e-02   1.0945755e-01  -2.4005159e-02
   1.7774255e-03  -1.1865077e-02  -1.0341248e-02  -7.7122698e-04   5.3021441e-03   1.9387832e-03   1.0957713e-02   3.3482709e-02  -2.6913619e-02   1.1822834e-02  -5.0247386e-02  -3.8322906e-02   5.0121489e-03  -1.0648810e-02  -8.1636481e-03   9.7129990e-03   1.1704319e-01  -1.7215814e-01  -2.1433868e-01  -2.9093208e-02  -5.4529219e-02   5.0527098e-02  -6.1033781e-03
   5.0710242e-03   3.6827093e-03  -1.5937632e-02   8.9912392e-03  -2.7953172e-02   2.8375753e-03   9.0943013e-03  -2.6667676e-02  -9.3350081e-02   9.7685776e-03  -2.3418483e-03  -8.9560847e-02  -2.1785614e-02   3.7776323e-02   7.4024217e-03  -3.1347365e-02  -3.7773966e-02   7.9806964e-02  -5.7030394e-02   1.3758888e-01   4.0292745e-02  -4.5677812e-02  -7.1990066e-02
   8.6396541e-03  -7.6307213e-03   4.6963495e-04   1.6674737e-02   3.8583330e-02  -1.7241123e-02   5.5175775e-02  -4.3958158e-03  -1.5829230e-01   3.2436033e-02  -5.0147146e-02  -5.8531200e-02   1.2419419e-02  -2.2982185e-01  -5.1744431e-02  -4.0609336e-02  -2.3524686e-01   1.1131245e-01  -1.7672383e-01   1.3793290e-01  -3.8681849e-02  -1.4560730e-01  -6.5045061e-02
   5.7234546e-03   8.8663169e-03  -9.8693146e-03  -1.2175631e-02   3.1411794e-02  -2.3676504e-02   4.3996636e-02   2.4110390e-03  -1.8842552e-01   1.1619766e-01  -4.2814952e-02  -3.6254911e-02  -5.3772207e-03  -1.6836413e-01   1.1957388e-01  -8.4099713e-02  -3.5404125e-01   5.5352625e-02  -2.6537721e-01   2.6140417e-01  -1.7339014e-01  -1.7138275e-01  -1.8152100e-01
   6.6672751e-03  -1.6186601e-02  -3.8787126e-03   1.7561650e-03   3.2793865e-02  -4.8749847e-03   1.2157273e-01  -8.9017541e-02  -4.1416054e-02  -3.2022255e-03   4.0424173e-02   1.3265294e-02  -2.0392172e-01   1.7384109e-01  -1.6031880e-01  -1.5949825e-01   1.2879666e-01  -1.2857197e-01   2.9377989e-02   1.4363894e-01   1.8935655e-01   5.8476147e-02   7.1451814e-02
  -1.6091167e-02  -1.0563047e-02  -1.9808271e-02  -4.4144371e-02   4.5530419e-02   4.4510846e-02   7.7636199e-02  -1.0405707e-01   5.6139920e-02  -1.0430649e-01  -3.8912449e-03  -2.2371782e-02   5.9429818e-02   9.1896954e-02   3.5721426e-01   4.5631031e-02   2.7763198e-02  -5.0993741e-03  -1.1557241e-01  -3.9850380e-01   8.7978712e-02   9.5680252e-02  -3.9534868e-02
   1.1115111e-02   1.0642796e-02   1.9913357e-02   1.7633448e-02  -2.0405018e-02  -3.5236401e-02  -1.0774365e-01   6.9398933e-02  -6.5289417e-02   1.0719854e-01  -5.8005921e-02  -1.7005115e-02   9.1906137e-02  -1.5901007e-01  -2.6411349e-01  -1.2463593e-03   3.9853658e-02   1.0303070e-01  -3.8421042e-02  -1.2152235e-03  -1.6737144e-01  -1.5647697e-01   8.9218074e-03
  -1.3503162e-03  -7.0083884e-03   5.1621021e-03   8.2022811e-03  -4.5294535e-03   1.7041227e-02  -1.2933472e-02   2.5727992e-03  -3.2056915e-02  -6.5738811e-02   2.2531564e-02   7.4471602e-03   7.8832551e-02  -6.3873957e-02  -3.7788582e-02  -3.5979738e-02   1.1423872e-01  -5.0840711e-02  -9.0263491e-02  -6.7426226e-02   9.3453161e-02   1.0156808e-01  -1.0865605e-01
   1.0551838e-02   1.1794570e-02   3.4506290e-03  -3.3473960e-03   2.0553601e-03   7.4532348e-03  -1.5141495e-02  -4.3827913e-02  -4.5874234e-02   1.4266362e-02   1.0433400e-01   6.1335699e-03  -8.5276988e-02   4.1757346e-02   6.6479133e-03   3.4961274e-03  -2.5826102e-01   1.8846259e-01   2.1220570e-01  -5.7987167e-03   1.8736874e-02  -1.8300721e-01   2.2400831e-02
   2.4257515e-03   6.3917597e-03   7.1145122e-03   5.5431516e-04  -4.3362485e-03  -1.4120163e-02  -9.8075014e-03  -2.5033210e-02   9.9273306e-03   3.2539362e-02  -2.7466561e-02  -2.2898492e-02  -5.1274376e-03   2.0046852e-02  -1.3917243e-02  -1.2766304e-02  -3.0014699e-02   2.6329487e-02   3.2390603e-03  -6.1052252e-02  -8.3337818e-02   8.9755859e-02  -1.1305694e-02
  -1.4543062e-04  -8.6774709e-03  -8.9606447e-03  -1.3709167e-03   3.7150082e-03   4.2468999e-03   9.4287113e-03   2.6287257e-02  -2.7180975e-02   1.4966144e-02  -4.7209811e-02  -5.5392561e-02   2.0692674e-02  -8.3665917e-03  -3.2164647e-02   2.7358126e-02   1.0942539e-01  -1.8555743e-01  -2.2238273e-01  -4.8135745e-02  -9.3652706e-02   6.4604491e-02   2.7702013e-02
   4.5483735e-03   4.6887770e-03  -1.5992580e-02   1.0514234e-02  -3.1631377e-02   2.7750561e-03   1.3742368e-02  -2.1637314e-02  -9.0925184e-02   1.3530821e-02  -8.0087484e-04  -9.1171175e-02  -3.5123651e-02   3.2939655e-02  -1.1788281e-03  -3.4621511e-02  -5.4344102e-02   7.8080978e-02  -5.4531289e-02   1.3976021e-01   4.6998374e-02  -2.8739518e-02  -2.8987188e-02
   8.3543980e-03  -8.2648500e-03   3.1982023e-04   1.8440407e-02   4.1190732e-02  -1.7054968e-02   6.6716162e-02  -7.8979017e-03  -1.5394094e-01   2.9819931e-02  -4.5563786e-02  -5.9651115e-02   1.6733021e-02  -2.1769108e-01  -9.1414918e-02  -7.7118736e-02  -2.1551052e-01   1.1379168e-01  -1.6241797e-01   1.3704733e-01  -3.0275680e-02  -1.6054382e-01  -5.2401628e-02
   5.8664423e-03   8.3413805e-03  -1.1116628e-02  -1.2355089e-02   3.0512301e-02  -2.5808303e-02   4.1460555e-02   5.1867306e-03  -1.9600940e-01   1.1459514e-01  -4.4677277e-02  -4.5225027e-02   5.0842340e-04  -1.6950392e-01   9.1057258e-02  -1.1797379e-01  -3.4409417e-01   6.3658622e-02  -2.6074691e-01   2.4603967e-01  -1.5180763e-01  -1.5259618e-01  -1.6944934e-01
   6.9346322e-03  -1.5621127e-02  -4.8421273e-03   7.4119310e-04   3.1177149e-02  -6.3606113e-03   1.2207031e-01  -9.8499780e-02  -5.2423435e-02   4.5579364e-03   3.9858694e-02   8.0577157e-03  -2.1197125e-01   1.7895147e-01  -1.6048285e-01  -1.6053471e-01   1.4333370e-01  -1.3127802e-01  -9.0873049e-03   1.2665236e-01   1.7371091e-01   6.7585443e-02   6.8437969e-02
  -1.6316818e-02  -1.0643865e-02  -2.0334098e-02  -4.4601562e-02   4.5154255e-02   4.5026743e-02   7.7523680e-02  -1.0282793e-01   3.5951971e-02  -1.0593265e-01   1.5838571e-02  -2.6006865e-02   5.2114224e-02   8.8462998e-02   3.6187286e-01   2.9268169e-02   6.3924657e-03  -9.8377665e-04  -1.1007743e-01  -3.5014478e-01   1.1809150e-01   9.7168864e-02  -3.6155509e-02
   1.0456968e-02   9.4802288e-03   2.1770447e-02   2.0133469e-02  -1.8729369e-02  -3.5914238e-02  -1.0658609e-01   6.9742600e-02  -5.2822298e-02   9.9420402e-02  -5.9789366e-02  -1.0537094e-02   1.0192576e-01  -1.6627721e-01  -2.7927623e-01   1.1669398e-03   6.7587598e-02   1.1463552e-01  -6.1575936e-02  -2.4278301e-02  -1.9600710e-01  -1.8542051e-01   2.2102358e-04
  -8.0904640e-04  -6.3149726e-03   4.0203639e-03   8.7288931e-03  -2.8627295e-03   1.7617401e-02  -1.0071837e-02  -2.4563101e-03  -2.7730820e-02  -5.3892176e-02   2.9902274e-02   6.3848284e-03   7.8546593e-02  -6.2500255e-02  -3.0394764e-02  -1.4752610e-02   1.1547812e-01  -6.3409859e-02  -1.0362691e-01  -5.5160685e-02   7.5085501e-02   6.2934069e-02  -7.5959778e-02
   9.0992396e-03   1.2223305e-02   2.8816006e-03  -2.7304793e-03  -2.9827466e-03   3.6074729e-03  -2.1582611e-02  -4.7413015e-02  -5.9511902e-02   1.6445861e-02   1.0090882e-01  -9.4406857e-03  -8.0149400e-02   5.7154543e-02   9.4986843e-04   1.0596590e-03  -2.5980850e-01   1.7931813e-01   1.8561330e-01   8.3455527e-04  -1.2776065e-02  -1.6478378e-01   3.9052097e-03
   3.4145018e-03   5.5496358e-03   6.0791192e-03  -2.2188933e-03  -5.3166751e-03  -1.9388593e-02  -1.2004967e-02  -3.1841614e-02   1.8249063e-02   1.3264358e-02  -3.6718035e-02  -2.9638732e-02  -3.4166750e-03   3.1161118e-03  -4.3076614e-03  -1.7787640e-02   3.1504121e-03   1.7069335e-03   2.2256632e-03  -4.9521662e-02  -6.5560226e-02   5.4871603e-02   8.1194137e-03
  -1.9937766e-03  -5.2971875e-03  -7.4959033e-03  -1.9703105e-03   2.1758373e-03   6.2565811e-03   7.9947871e-03   1.9415365e-02  -2.7842918e-02   1.5892418e-02  -4.2333249e-02  -7.0621359e-02   3.7897178e-02  -6.6889209e-03  -5.1539828e-02   4.4550139e-02   9.9463707e-02  -1.9575588e-01  -2.1890887e-01  -6.1968971e-02  -1.2840245e-01   8.2035523e-02   5.4297076e-02
   3.6053277e-03   5.6934500e-03  -1.5555691e-02   1.1648906e-02  -3.4400632e-02   2.3681304e-03   1.8553729e-02  -1.4906491e-02  -8.6263294e-02   1.8310248e-02   1.6951836e-03  -9.0038568e-02  -4.7333494e-02   2.5621288e-02  -8.6118780e-03  -3.9420624e-02  -7.3738849e-02   7.4029319e-02  -4.8906039e-02   1.4391865e-01   5.6477700e-02  -3.2357484e-03   1.8383467e-02
   7.8890341e-03  -9.3372785e-03  -7.6805894e-05   1.9761043e-02   4.3908829e-02  -1.7200581e-02   7.8645859e-02  -1.1070120e-02  -1.4917278e-01   2.6776109e-02  -4.1514128e-02  -5.9406430e-02   1.9939099e-02  -2.0562616e-01  -1.2805784e-01  -1.1476653e-01  -1.9524796e-01   1.1334332e-01  -1.4861328e-01   1.4062988e-01  -2.0449918e-02  -1.7351325e-01  -3.7705002e-02
   5.9122453e-03   7.6443667e-03  -1.2447283e-02  -1.1913464e-02   2.9187311e-02  -2.7522088e-02   3.8545509e-02   7.6581585e-03  -2.0195919e-01   1.1057517e-01  -4.7034790e-02  -5.4680126e-02   8.8438125e-03  -1.7302570e-01   6.0690310e-02  -1.4926243e-01  -3.3204420e-01   7.1936411e-02  -2.5615610e-01   2.2987041e-01  -1.3178529e-01  -1.3753293e-01  -1.5636627e-01
   6.9772686e-03  -1.3832090e-02  -5.0524716e-03   9.0450119e-04   2.9200996e-02  -5.4737142e-03   1.2110234e-01  -1.0415197e-01  -5.5268623e-02   8.5200505e-03   3.9545749e-02   3.4628467e-03  -2.0536624e-01   1.8734158e-01  -1.6734229e-01  -1.4761074e-01   1.6076469e-01  -1.2596833e-01  -2.7045326e-02   1.1716565e-01   1.4865216e-01   6.9849231e-02   6.2602817e-02
  -1.6883493e-02  -1.0557727e-02  -2.0638200e-02  -4.4681419e-02   4.3386829e-02   4.5929997e-02   7.5185340e-02  -9.5793055e-02   2.0575470e-02  -1.0851582e-01   3.5334800e-02  -2.7308986e-02   4.3528503e-02   8.5535370e-02   3.6775003e-01   1.6533572e-02  -2.5075656e-02  -2.7224581e-03  -8.4566186e-02  -2.8952281e-01   1.4707340e-01   1.0423306e-01  -2.5977365e-02
   9.1592524e-03   8.1000349e-03   2.3286043e-02   2.2990620e-02  -1.8531499e-02  -3.7164731e-02  -1.0793521e-01   7.3137409e-02  -3.7067976e-02   9.0364276e-02  -5.5328578e-02   2.6170676e-05   1.0784686e-01  -1.7402090e-01  -2.8088524e-01   3.1138613e-03   8.1966908e-02   1.1606218e-01  -7.7537941e-02  -2.3720663e-02  -2.1292829e-01  -2.0803486e-01  -8.4837312e-03
  -2.3543715e-04  -5.4897403e-03   2.2652469e-03   8.4665627e-03  -3.7049617e-04   1.5593679e-02  -8.1279202e-03  -9.1418201e-03  -1.6521684e-02  -4.0583367e-02   3.1371648e-02   5.9210711e-03   7.2242209e-02  -5.9617374e-02  -1.9270488e-02   4.0748865e-03   1.1874856e-01  -7.2141123e-02  -1.1989776e-01  -3.9395942e-02   6.0989297e-02   1.2631713e-02  -3.5277144e-02
   7.4346539e-03   1.2601278e-02   2.5389889e-03  -2.0834001e-03  -7.7569700e-03  -8.3798124e-04  -2.8572904e-02  -4.9074574e-02  -6.9643272e-02   1.7840927e-02   9.3664974e-02  -2.1124153e-02  -7.3599444e-02   7.2662410e-02  -3.4711707e-03  -2.6137307e-03  -2.5697660e-01   1.7007181e-01   1.6559711e-01   1.0780450e-02  -3.7419438e-02  -1.3750216e-01  -1.6838086e-02
   4.3351530e-03   4.4985310e-03   4.5753012e-03  -5.2269791e-03  -6.5706036e-03  -2.4951360e-02  -1.3029882e-02  -3.6466711e-02   2.6429059e-02  -9.6085028e-03  -4.5119856e-02  -3.5662650e-02  -3.4818354e-03  -1.4628434e-02   7.8271869e-03  -2.1056856e-02   3.7502995e-02  -2.7662797e-02   3.3068187e-03  -2.9659452e-02  -4.4907956e-02   1.1979003e-02   3.0158400e-02
  -3.5255266e-03  -2.0821467e-03  -6.0781915e-03  -2.5953380e-03   9.2697005e-04   7.7689433e-03   7.0311012e-03   1.3518253e-02  -2.7946778e-02   1.4778023e-02  -3.6059079e-02  -8.2998832e-02   5.4020147e-02  -6.4857355e-03  -6.4681153e-02   5.8852264e-02   8.8095522e-02  -2.0087069e-01  -2.0310266e-01  -7.0468614e-02  -1.5436889e-01   1.0023669e-01   7.2051367e-02
   2.2892201e-03   6.6472637e-03  -1.4578931e-02   1.2479992e-02  -3.6231851e-02   1.7202536e-03   2.3047538e-02  -6.3933497e-03  -7.8933463e-02   2.3664185e-02   5.0940265e-03  -8.5758496e-02  -5.7115370e-02   1.6192474e-02  -1.5228438e-02  -4.5519400e-02  -9.4916214e-02   6.7689991e-02  -3.8883051e-02   1.5056985e-01   6.7590160e-02   2.8754547e-02   6.7749659e-02
   7.2540137e-03  -1.0907662e-02  -7.7355702e-04   2.0598677e-02   4.6712091e-02  -1.7788340e-02   9.0966079e-02  -1.4193161e-02  -1.4469419e-01   2.3730541e-02  -3.7903463e-02  -5.7707393e-02   2.0456928e-02  -1.9381550e-01  -1.6102397e-01  -1.5396241e-01  -1.7511546e-01   1.0904021e-01  -1.3687539e-01   1.4906934e-01  -9.0079938e-03  -1.8394644e-01  -2.0272601e-02
   5.8306718e-03   6.8121907e-03  -1.3807859e-02  -1.0863005e-02   2.7512365e-02  -2.8744527e-02   3.5391602e-02   9.6013558e-03  -2.0610596e-01   1.0447042e-01  -4.9783012e-02  -6.4504679e-02   1.9594938e-02  -1.7953529e-01   2.9067157e-02  -1.7778070e-01  -3.1856601e-01   8.0150085e-02  -2.5231190e-01   2.1275416e-01  -1.1469123e-01  -1.2703127e-01  -1.4197146e-01
   6.7780425e-03  -1.1109657e-02  -4.3956045e-03   2.1224350e-03   2.7215592e-02  -2.3828885e-03   1.1863441e-01  -1.0506738e-01  -4.9537075e-02   7.7410654e-03   3.9944219e-02  -4.8861288e-04  -1.8282480e-01   1.9748723e-01  -1.8000075e-01  -1.2374839e-01   1.7896953e-01  -1.1239898e-01  -2.1876435e-02   1.1755996e-01   1.1807071e-01   6.3612905e-02   5.2593599e-02
  -1.7761797e-02  -1.0232526e-02  -2.0677633e-02  -4.4407447e-02   4.0396864e-02   4.7370612e-02   7.0985614e-02  -8.3711532e-02   1.1282131e-02  -1.1199382e-01   5.3180764e-02  -2.6671972e-02   3.5349927e-02   8.4150993e-02   3.7410095e-01   8.1001391e-03  -6.4180393e-02  -9.4648809e-03  -3.9455667e-02  -2.2103394e-01   1.7281983e-01   1.1667880e-01  -8.9649632e-03
   7.3747823e-03   6.6671334e-03   2.4206948e-02   2.6008450e-02  -1.9839943e-02  -3.8648182e-02  -1.1158501e-01   7.8668976e-02  -1.8434513e-02   8.0792087e-02  -4.5657800e-02   1.3581205e-02   1.1004130e-01  -1.8054995e-01  -2.6887470e-01   5.8247266e-03   8.2469629e-02   1.0657039e-01  -8.4622470e-02  -2.0076611e-03  -2.1854654e-01  -2.2306103e-01  -1.6842852e-02
   3.9773075e-04  -4.6330806e-03   1.1236147e-04   7.6993669e-03   2.8842202e-03   1.1448791e-02  -7.0053292e-03  -1.6550540e-02   9.4143511e-04  -2.5990124e-02   2.7938183e-02   6.9986004e-03   5.9678701e-02  -5.5673791e-02  -4.2173681e-03   1.9218369e-02   1.2363011e-01  -7.4684839e-02  -1.3857053e-01  -2.1385052e-02   5.4310892e-02  -4.6561215e-02   1.0162725e-02
   5.7204764e-03   1.2685379e-02   2.4221794e-03  -1.2872415e-03  -1.2030961e-02  -5.7504481e-03  -3.5700838e-02  -4.8367893e-02  -7.5067736e-02   1.8113073e-02   8.1849196e-02  -2.7081862e-02  -6.7121165e-02   8.6970842e-02  -5.8117992e-03  -8.6293837e-03  -2.4835774e-01   1.6163016e-01   1.5215774e-01   2.3292030e-02  -5.1253467e-02  -1.0364918e-01  -4.0169420e-02
   4.9859149e-03   3.3510862e-03   2.8772429e-03  -8.0256315e-03  -8.1106483e-03  -2.9877338e-02  -1.3233740e-02  -3.8308745e-02   3.2879468e-02  -3.3164553e-02  -5.1563329e-02  -4.0558772e-02  -4.9784411e-03  -3.0901604e-02   2.0640888e-02  -2.2956887e-02   6.7789510e-02  -5.8553590e-02   6.2190818e-03  -4.6609423e-03  -2.3996761e-02  -3.0265160e-02   4.9838208e-02
  -4.5788941e-03   6.2987600e-04  -4.7843889e-03  -3.2350050e-03   2.0139705e-04   8.5885291e-03   6.8614549e-03   9.1445787e-03  -2.6475021e-02   1.2037504e-02  -2.8796658e-02  -9.1728846e-02   6.6464298e-02  -8.6571268e-03  -7.0518408e-02   6.7936875e-02   7.6359102e-02  -1.9884307e-01  -1.7500488e-01  -7.4064791e-02  -1.6776202e-01   1.1642088e-01   8.0380217e-02
   6.7662375e-04   7.5042216e-03  -1.3042208e-02   1.3152243e-02  -3.7137689e-02   9.3861587e-04   2.6675656e-02   3.8342921e-03  -6.8575686e-02   2.9042459e-02   9.4385948e-03  -7.8082087e-02  -6.3039594e-02   5.0694610e-03  -2.1589527e-02  -5.2790681e-02  -1.1657124e-01   5.9270470e-02  -2.3453071e-02   1.6027165e-01   7.8782778e-02   6.4206105e-02   1.1632855e-01
   6.4653681e-03  -1.2992519e-02  -1.8161541e-03   2.0941493e-02   4.9553871e-02  -1.8874218e-02   1.0367426e-01  -1.7569338e-02  -1.4118699e-01   2.1144053e-02  -3.4695084e-02  -5.4545730e-02   1.6868011e-02  -1.8230086e-01  -1.8991126e-01  -1.9478819e-01  -1.5566461e-01   1.0013247e-01  -1.2860555e-01   1.6252365e-01   3.9234412e-03  -1.9130271e-01   5.5244669e-04
   5.5894738e-03   5.8853350e-03  -1.5137292e-02  -9.2548487e-03   2.5592989e-02  -2.9421562e-02   3.2158619e-02   1.0847081e-02  -2.0832640e-01   9.6735721e-02  -5.2885072e-02  -7.4486977e-02   3.2632605e-02  -1.8965678e-01  -3.0313081e-03  -2.0344969e-01  -3.0440106e-01   8.8307371e-02  -2.4997183e-01   1.9447109e-01  -1.0173000e-01  -1.2146683e-01  -1.2584732e-01
   6.3478383e-03  -7.9831944e-03  -2.9701646e-03   4.0150815e-03   2.5546290e-02   2.1511469e-03   1.1478707e-01  -1.0111640e-01  -3.6765030e-02   2.4155308e-03   4.1373235e-02  -3.7464304e-03  -1.4700260e-01   2.0697062e-01  -1.9564179e-01  -9.4676818e-02   1.9470104e-01  -9.2513649e-02   4.1331862e-03   1.2864361e-01   8.7789587e-02   4.9465870e-02   3.8168429e-02
  -1.8834593e-02  -9.5851235e-03  -2.0405266e-02  -4.3833220e-02   3.6576012e-02   4.9484082e-02   6.5733694e-02  -6.8115301e-02   8.4787770e-03  -1.1612589e-01   6.7788575e-02  -2.5044771e-02   2.9600462e-02   8.5015448e-02   3.7915456e-01   4.4087938e-03  -1.0694961e-01  -1.9034228e-02   2.1953829e-02  -1.5133752e-01   1.9298421e-01   1.3348133e-01   1.4127475e-02
   5.3292733e-03   5.3515625e-03   2.4394216e-02   2.8879195e-02  -2.2333623e-02  -4.0002260e-02  -1.1675235e-01   8.4784784e-02   2.0678034e-03   7.1533826e-02  -3.2641509e-02   2.8439047e-02   1.0959581e-01  -1.8416723e-01  -2.4498350e-01   1.0185864e-02   7.1255831e-02   8.7377309e-02  -8.2975929e-02   3.4810223e-02  -2.1438758e-01  -2.3033610e-01  -2.4447197e-02
   1.0886327e-03  -3.8229352e-03  -2.1951977e-03   6.7375745e-03   6.7633069e-03   5.8552090e-03  -6.4928177e-03  -2.3649047e-02   2.3465815e-02  -1.0214678e-02   2.0943166e-02   1.0333472e-02   4.0978932e-02  -5.1017244e-02   1.4299218e-02   2.9737544e-02   1.2907445e-01  -6.8821739e-02  -1.5858911e-01  -2.6615021e-03   5.6939498e-02  -1.1075094e-01   5.6587613e-02
   4.0738574e-03   1.2263553e-02   2.5616216e-03  -2.2094933e-04  -1.5653884e-02  -1.0924380e-02  -4.2588111e-02  -4.5019246e-02  -7.4827562e-02   1.7025623e-02   6.4768243e-02  -2.5823538e-02  -6.2048597e-02   9.8757381e-02  -5.7233137e-03  -1.7951606e-02  -2.3267603e-01   1.5464759e-01   1.4430634e-01   3.7204753e-02  -5.1446124e-02  -6.5930455e-02  -6.5774861e-02
   5.2000237e-03   2.2499405e-03   1.2571648e-03  -1.0168471e-02  -9.7837586e-03  -3.3103786e-02  -1.2914034e-02  -3.6931202e-02   3.6152730e-02  -5.3982789e-02  -5.4955912e-02  -4.3516633e-02  -7.2696195e-03  -4.2913415e-02   3.1991154e-02  -2.3849192e-02   8.8646124e-02  -8.6865677e-02   1.1208773e-02   2.1590565e-02  -5.8217480e-03  -6.2910996e-02   6.1975416e-02
  -5.0840729e-03   2.5608198e-03  -3.6358293e-03  -3.8470747e-03   2.1386334e-04   8.5404746e-03   7.7189262e-03   6.6846117e-03  -2.2474550e-02   8.3209569e-03  -2.0847952e-02  -9.6333523e-02   7.2945024e-02  -1.4003508e-02  -6.8599002e-02   6.9882997e-02   6.5218485e-02  -1.8761561e-01  -1.3551997e-01  -7.3629412e-02  -1.6586234e-01   1.2780616e-01   7.9782253e-02
  -1.1182796e-03   8.2217968e-03  -1.0963723e-02   1.3857349e-02  -3.7169514e-02   1.0874449e-04   2.8879967e-02   1.5487418e-02  -5.5042098e-02   3.3864925e-02   1.4816237e-02  -6.7007495e-02  -6.3742253e-02  -7.3461907e-03  -2.8512371e-02  -6.1232331e-02  -1.3713905e-01   4.9190103e-02  -2.2906262e-03   1.7342289e-01   8.8169585e-02   9.9265729e-02   1.6098947e-01
   5.5441113e-03  -1.5556430e-02  -3.2280157e-03   2.0812326e-02   5.2379537e-02  -2.0436016e-02   1.1676940e-01  -2.1491745e-02  -1.3921556e-01   1.9430071e-02  -3.1904164e-02  -5.0020548e-02   8.1867279e-03  -1.7093832e-01  -2.1469769e-01  -2.3691986e-01  -1.3721170e-01   8.6212147e-02  -1.2480513e-01   1.8095055e-01   1.7820452e-02  -1.9521495e-01   2.5291962e-02
   5.1531330e-03   4.9072852e-03  -1.6367871e-02  -7.1760178e-03   2.3554671e-02  -2.9518548e-02   2.9000948e-02   1.1309893e-02  -2.0848915e-01   8.7900380e-02  -5.6363643e-02  -8.4288968e-02   4.7794253e-02  -2.0401332e-01  -3.4613294e-02  -2.2626425e-01  -2.9032336e-01   9.6460130e-02  -2.4981581e-01   1.7482353e-01  -9.3895367e-02  -1.2073869e-01  -1.0745850e-01
   5.7279074e-03  -5.1386361e-03  -1.0774280e-03   5.9916602e-03   2.4404181e-02   6.8719687e-03   1.0978897e-01  -9.2923356e-02  -2.0216433e-02  -6.0880604e-03   4.3776865e-02  -6.1630826e-03  -1.0444022e-01   2.1285498e-01  -2.0978029e-01  -6.7740797e-02   2.0407503e-01  -7.0246879e-02   4.4074294e-02   1.4935611e-01   6.4671652e-02   3.0480806e-02   2.0447211e-02
  -1.9898074e-02  -8.5380834e-03  -1.9792983e-02  -4.3041086e-02   3.2467327e-02   5.2323113e-02   6.0620076e-02  -5.1128278e-02   1.1578569e-02  -1.2041726e-01   7.7446890e-02  -2.3785972e-02   2.8039937e-02   8.8348731e-02   3.8041931e-01   5.6649677e-03  -1.4835193e-01  -2.8264166e-02   9.3434994e-02  -8.8741470e-02   2.0538974e-01   1.5315543e-01   4.1845954e-02
   3.3088206e-03   4.3009655e-03   2.3835779e-02   3.1203588e-02  -2.5362654e-02  -4.0921295e-02  -1.2212441e-01   8.9474163e-02   2.2708453e-02   6.3514588e-02  -1.8838976e-02   4.2516544e-02   1.0790780e-01  -1.8345781e-01  -2.1265708e-01   1.6473669e-02   5.2963375e-02   6.1572386e-02  -7.4759897e-02   7.7532258e-02  -2.0271597e-01  -2.3070672e-01  -3.0799894e-02
   1.7963143e-03  -3.1018412e-03  -4.4110077e-03   5.8599752e-03   1.1066700e-02  -3.9007297e-04  -6.2871363e-03  -2.9400877e-02   4.9343758e-02   6.6063178e-03   1.1950969e-02   1.6343139e-02   1.6733750e-02  -4.5898211e-02   3.5159404e-02   3.5067786e-02   1.3344964e-01  -5.2730796e-02  -1.7824693e-01   1.5122122e-02   6.9133659e-02  -1.7509834e-01   1.0003116e-01
   2.5533876e-03   1.1186918e-02   3.0129020e-03   1.2204388e-03  -1.8562859e-02  -1.6088440e-02  -4.8933931e-02  -3.8964163e-02  -6.8315749e-02   1.4431670e-02   4.1836305e-02  -1.6278432e-02  -5.9319055e-02   1.0684705e-01  -3.3538350e-03  -3.1227702e-02  -2.0901758e-01   1.4934458e-01   1.4017741e-01   5.1080250e-02  -3.6738749e-02  -2.7011513e-02  -9.2653307e-02
   4.8658895e-03   1.3495048e-03  -5.3617083e-05  -1.1274118e-02  -1.1280212e-02  -3.3608541e-02  -1.2267547e-02  -3.2119860e-02   3.5179429e-02  -6.8564596e-02  -5.4395101e-02  -4.3453919e-02  -9.5178184e-03  -4.7751986e-02   3.9708306e-02  -2.4046131e-02   9.5341794e-02  -1.0801097e-01   1.8892652e-02   4.4988281e-02   6.6900045e-03  -7.7989378e-02   6.1916201e-02
  -5.0618787e-03   3.5264816e-03  -2.6094252e-03  -4.3709745e-03   1.1550707e-03   7.4863574e-03   9.7159198e-03   6.3175837e-03  -1.5206618e-02   4.4870934e-03  -1.2330592e-02  -9.6743349e-02   7.1769264e-02  -2.3077844e-02  -5.9093605e-02   6.3472339e-02   5.5380721e-02  -1.6536064e-01  -8.6394390e-02  -7.0315019e-02  -1.4737946e-01   1.3180047e-01   7.1763804e-02
  -2.9352598e-03   8.7609396e-03  -8.4106418e-03   1.4815422e-02  -3.6419581e-02  -7.3642404e-04   2.9155286e-02   2.8001192e-02  -3.8546221e-02   3.7622672e-02   2.1262359e-02  -5.2852553e-02  -5.8202468e-02  -2.0724325e-02  -3.7065546e-02  -7.0946358e-02  -1.5480462e-01   3.8100446e-02   2.3800763e-02   1.9001327e-01   9.3641355e-02   1.2948235e-01   1.9835867e-01
   4.5151097e-03  -1.8509906e-02  -4.9980810e-03   2.0273631e-02   5.5143141e-02  -2.2359210e-02   1.3025894e-01  -2.6216068e-02  -1.3915500e-01   1.8880174e-02  -2.9574605e-02  -4.4356991e-02  -5.9139574e-03  -1.5938830e-01  -2.3583963e-01  -2.7962676e-01  -1.1974896e-01   6.7341771e-02  -1.2588612e-01   2.0416471e-01   3.1751477e-02  -1.9563299e-01   5.4232202e-02
   4.4824178e-03   3.9250027e-03  -1.7426339e-02  -4.7428317e-03   2.1534486e-02  -2.9013715e-02   2.6044796e-02   1.1009087e-02  -2.0639359e-01   7.8508550e-02  -6.0280753e-02  -9.3427791e-02   6.4974073e-02  -2.2319902e-01  -6.4481283e-02  -2.4625036e-01  -2.7709460e-01   1.0471162e-01  -2.5229846e-01   1.5373824e-01  -9.1942604e-02  -1.2431416e-01  -8.6169014e-02
   4.9890928e-03  -3.2952001e-03   8.3376150e-04   7.3440894e-03   2.3824729e-02   1.0238496e-02   1.0391924e-01  -8.1745880e-02  -4.3144492e-03  -1.5444685e-02   4.6571498e-02  -7.4794484e-03  -6.4619952e-02   2.1221179e-01  -2.1696587e-01  -5.0426087e-02   2.0336659e-01  -5.0824194e-02   8.7529531e-02   1.7671013e-01   5.5332027e-02   1.1892443e-02   1.8485396e-03
  -2.0679226e-02  -7.0372622e-03  -1.8857254e-02  -4.2128430e-02   2.8655001e-02   5.5798262e-02   5.7063711e-02  -3.5166571e-02   1.9027553e-02  -1.2409337e-01   8.0444559e-02  -2.4415275e-02   3.1551318e-02   9.3789976e-02   3.7517146e-01   1.1886988e-02  -1.8299170e-01  -3.3546071e-02   1.6623148e-01  -4.2156348e-02   2.0843507e-01   1.7420729e-01   7.2170200e-02
   1.6333286e-03   3.6132421e-03   2.2643310e-02   3.2533229e-02  -2.8024957e-02  -4.1228318e-02  -1.2601419e-01   9.0557553e-02   4.1037516e-02   5.7750202e-02  -7.2256079e-03   5.3613181e-02   1.0622394e-01  -1.7755360e-01  -1.7672030e-01   2.4141489e-02   3.4102734e-02   3.3734817e-02  -6.3979682e-02   1.1480077e-01  -1.8609505e-01  -2.2582670e-01  -3.5314283e-02
   2.4404235e-03  -2.4718323e-03  -6.3094247e-03   5.2605891e-03   1.5545331e-02  -6.4367655e-03  -6.0187893e-03  -3.2866598e-02   7.6389634e-02   2.4146122e-02   2.6571761e-03   2.5079647e-02  -1.1918820e-02  -4.0516380e-02   5.6688094e-02   3.5047930e-02   1.3465282e-01  -2.5325798e-02  -1.9512595e-01   3.0383831e-02   8.9361159e-02  -2.3411168e-01   1.3664692e-01
   1.1578567e-03   9.3944788e-03   3.8423070e-03   3.1057074e-03  -2.0778368e-02  -2.0907851e-02  -5.4545702e-02  -3.0373816e-02  -5.5401563e-02   1.0240235e-02   1.2649155e-02   2.1506555e-03  -5.9263320e-02   1.1037621e-01   6.8014823e-04  -4.8606348e-02  -1.7704754e-01   1.4529640e-01   1.3718619e-01   6.3384416e-02  -7.7580782e-03   1.0701381e-02  -1.1919829e-01
   3.9441151e-03   7.9062107e-04  -8.9474696e-04  -1.1086912e-02  -1.2180725e-02  -3.0610197e-02  -1.1384755e-02  -2.3952950e-02   2.9475719e-02  -7.3846629e-02  -4.9347674e-02  -3.9257796e-02  -1.0804124e-02  -4.2905289e-02   4.1928905e-02  -2.3814829e-02   8.4582456e-02  -1.1750313e-01   2.9954926e-02   6.1724367e-02   1.1237559e-02  -6.9758933e-02   4.6299177e-02
  -4.6084177e-03   3.4616221e-03  -1.6597238e-03  -4.7455034e-03   3.1864427e-03   5.3395033e-03   1.2828383e-02   7.9658795e-03  -4.3135994e-03   1.5523592e-03  -3.1019689e-03  -9.3375600e-02   6.2065355e-02  -3.6033972e-02  -4.2733537e-02   4.8466928e-02   4.7139274e-02  -1.3075744e-01  -3.0175909e-02  -6.5367170e-02  -1.1268016e-01   1.2615877e-01   5.8659119e-02
  -4.5618138e-03   9.0870806e-03  -5.5083857e-03   1.6254563e-02  -3.5029849e-02  -1.6484913e-03   2.7106425e-02   4.0511796e-02  -1.9795973e-02   3.9988883e-02   2.8633880e-02  -3.6297117e-02  -4.6069386e-02  -3.4852409e-02  -4.8532003e-02  -8.2060695e-02  -1.6752944e-01   2.6879664e-02   5.2495068e-02   2.0938957e-01   9.2994717e-02   1.5013408e-01   2.2495083e-01
   3.4053931e-03  -2.1715339e-02  -7.0739175e-03   1.9427328e-02   5.7824278e-02  -2.4436659e-02   1.4416521e-01  -3.1936387e-02  -1.4115379e-01   1.9611808e-02  -2.7744090e-02  -3.7911422e-02  -2.4971862e-02  -1.4713979e-01  -2.5430983e-01  -3.2185497e-01  -1.0292384e-01   4.4114764e-02  -1.3155590e-01   2.3191699e-01   4.4449007e-02  -1.9293279e-01   8.7349628e-02
   3.5350734e-03   2.9903820e-03  -1.8235117e-02  -2.0912363e-03   1.9675472e-02  -2.7884964e-02   2.3371199e-02   1.0077549e-02  -2.0170922e-01   6.9054586e-02  -6.4707758e-02  -1.0127417e-01   8.4234765e-02  -2.4774210e-01  -9.1273544e-02  -2.6341816e-01  -2.6541009e-01   1.1323383e-01  -2.5750181e-01   1.3135102e-01  -9.6382749e-02  -1.3133032e-01  -6.1280037e-02
   4.2260460e-03  -3.0556093e-03   2.2586238e-03   7.3817486e-03   2.3646751e-02   1.0730332e-02   9.7448079e-02  -6.9274980e-02   6.2143899e-03  -2.2823515e-02   4.8634147e-02  -7.3850348e-03  -3.8194865e-02   2.0273855e-01  -2.1187865e-01  -4.8716999e-02   1.8997075e-01  -3.9645886e-02   1.2243252e-01   2.0603570e-01   6.4625526e-02   1.9103125e-04  -1.4316349e-02
  -2.0871539e-02  -5.0675743e-03  -1.7681919e-02  -4.1178821e-02   2.5626530e-02   5.9643936e-02   5.6471876e-02  -2.2541432e-02   2.8523362e-02  -1.2615823e-01   7.5302902e-02  -2.8283011e-02   3.9663308e-02   1.0038307e-01   3.6108324e-01   2.3004763e-02  -2.0600003e-01  -3.1538569e-02   2.2995518e-01  -1.9627572e-02   2.0142445e-01   1.9556921e-01   1.0266256e-01
   6.1400192e-04   3.3137265e-03   2.1035453e-02   3.2436156e-02  -2.9294798e-02  -4.0922853e-02  -1.2662516e-01   8.6067047e-02   5.4056228e-02   5.5281217e-02  -7.6131617e-04   5.9751256e-02   1.0523850e-01  -1.6633189e-01  -1.4283501e-01   3.1699883e-02   2.2070390e-02   9.2658226e-03  -5.5868617e-02   1.3466508e-01  -1.6695006e-01  -2.1790266e-01  -3.7354066e-02
   2.9128269e-03  -1.8983913e-03  -7.7077062e-03   5.0067959e-03   1.9908139e-02  -1.1446257e-02  -5.2753107e-03  -3.3301595e-02   1.0195216e-01   4.1705616e-02  -5.1649200e-03   3.6153390e-02  -4.3246800e-02  -3.5104868e-02   7.6819101e-02   2.9955116e-02   1.3030010e-01   1.3336666e-02  -2.0610090e-01   4.1803878e-02   1.1435828e-01  -2.8202487e-01   1.6296807e-01
  -1.6165306e-04   6.9275349e-03   5.1056729e-03   5.4489259e-03  -2.2396715e-02  -2.4981040e-02  -5.9351252e-02  -1.9669384e-02  -3.6572906e-02   4.3663200e-03  -2.2917437e-02   2.9541249e-02  -6.1439772e-02   1.0894515e-01   5.3760845e-03  -6.9560584e-02  -1.3717646e-01   1.4119256e-01   1.3220120e-01   7.2672719e-02   3.2851905e-02   4.5240903e-02  -1.4338285e-01
   2.4805452e-03   6.7102309e-04  -1.1949513e-03  -9.5242357e-03  -1.2038385e-02  -2.3773406e-02  -1.0283929e-02  -1.2878712e-02   1.9301021e-02  -6.7747160e-02  -3.9823900e-02  -3.0117145e-02  -1.0266077e-02  -2.6865721e-02   3.7457312e-02  -2.3398327e-02   5.5310803e-02  -1.1172013e-01   4.4718201e-02   6.8820111e-02   6.7470548e-03  -3.5814497e-02   1.3778799e-02
  -3.8668902e-03   2.4338379e-03  -7.4888042e-04  -4.9282088e-03   6.4328654e-03   2.0793500e-03   1.6896420e-02   1.1258797e-02   1.0009188e-02   6.2134021e-04   7.3069806e-03  -8.7205896e-02   4.3947224e-02  -5.2485319e-02  -2.0700458e-02   2.5850702e-02   4.0277273e-02  -8.3306997e-02   2.9837779e-02  -5.9935470e-02  -6.3871100e-02   1.0911629e-01   4.3370699e-02
  -5.7317346e-03   9.1730777e-03  -2.4466580e-03   1.8392585e-02  -3.3208337e-02  -2.7907659e-03   2.2487190e-02   5.1878311e-02  -8.1377377e-05   4.0918591e-02   3.6479430e-02  -1.8383607e-02  -2.7987513e-02  -4.9662954e-02  -6.4337765e-02  -9.4591254e-02  -1.7310746e-01   1.6599091e-02   7.9687824e-02   2.3010766e-01   8.4064913e-02   1.5662057e-01   2.3731032e-01
   2.2419758e-03  -2.5001528e-02  -9.3619920e-03   1.8408338e-02   6.0441567e-02  -2.6385028e-02   1.5852941e-01  -3.8765682e-02  -1.4513963e-01   2.1548825e-02  -2.6404632e-02  -3.1157653e-02  -4.7738090e-02  -1.3356909e-01  -2.7155392e-01  -3.6239064e-01  -8.6100565e-02   1.7625033e-02  -1.4079842e-01   2.6398763e-01   5.4468461e-02  -1.8796132e-01   1.2427963e-01
   2.2678699e-03   2.1624317e-03  -1.8713586e-02   6.3485755e-04   1.8124410e-02  -2.6091545e-02   2.1007780e-02   8.7554013e-03  -1.9392499e-01   5.9921481e-02  -6.9689546e-02  -1.0707092e-01   1.0593015e-01  -2.7806105e-01  -1.1354388e-01  -2.7771906e-01  -2.5583658e-01   1.2229755e-01  -2.6501320e-01   1.0805386e-01  -1.0749961e-01  -1.4074165e-01  -3.2085495e-02
   3.5453744e-03  -4.7498339e-03   2.7492652e-03   5.5923315e-03   2.3536354e-02   7.2099437e-03   9.0583783e-02  -5.7379677e-02   7.3807321e-03  -2.5512490e-02   4.8465902e-02  -5.6433671e-03  -3.4600165e-02   1.8338717e-01  -1.9066905e-01  -6.5536807e-02   1.6333222e-01  -4.0923467e-02   1.3747389e-01   2.3155359e-01   9.4141053e-02   1.7062769e-03  -2.4563107e-02
  -2.0188089e-02  -2.6649420e-03  -1.6433213e-02  -4.0219039e-02   2.3624051e-02   6.3422602e-02   5.9930570e-02  -1.5005107e-02   3.7438923e-02  -1.2555877e-01   6.1130485e-02  -3.6192994e-02   5.0341202e-02   1.0665582e-01   3.3693110e-01   3.8993323e-02  -2.1404350e-01  -1.9969619e-02   2.7396904e-01  -2.6525865e-02   1.8476363e-01   2.1691655e-01   1.3061524e-01
   4.9591214e-04   3.3401573e-03   1.9310707e-02   3.0581101e-02  -2.8190892e-02  -4.0191161e-02  -1.2240705e-01   7.4681397e-02   5.8585660e-02   5.7024082e-02  -1.8198466e-03   5.9547193e-02   1.0486389e-01  -1.5051231e-01  -1.1677556e-01   3.6714138e-02   2.3854424e-02  -6.5147432e-03  -5.5809828e-02   1.2663910e-01  -1.4719919e-01  -2.0946040e-01  -3.6316348e-02
   3.0998475e-03  -1.3222174e-03  -8.4838884e-03   5.0133736e-03   2.3818789e-02  -1.4647185e-02  -3.6199009e-03  -3.0247679e-02   1.2290673e-01   5.8031842e-02  -9.6844641e-03   4.8638313e-02  -7.4910565e-02  -3.0037113e-02   9.3288709e-02   2.0548348e-02   1.1799546e-01   6.1600079e-02  -2.0742944e-01   4.8493177e-02   1.3936183e-01  -3.1320859e-01   1.7612242e-01
  -1.4777641e-03   3.9328740e-03   6.8236056e-03   8.1952357e-03  -2.3583424e-02  -2.7833286e-02  -6.3391710e-02  -7.5262831e-03  -1.3081490e-02  -3.3249534e-03  -6.4598992e-02   6.5400724e-02  -6.4522071e-02   1.0274680e-01   9.4538561e-03  -9.2730555e-02  -9.0640284e-02   1.3458115e-01   1.2170343e-01   7.7756379e-02   8.0468423e-02   7.5227832e-02  -1.6301142e-01
   6.1370983e-04   1.0160080e-03  -9.7658695e-04  -6.7058641e-03  -1.0486627e-02  -1.3395360e-02  -8.9777056e-03   2.0760584e-04   5.7555986e-03  -4.9685161e-02  -2.6537823e-02  -1.5903492e-02  -7.2420799e-03   2.5800167e-04   2.6111204e-02  -2.3041258e-02   9.4263517e-03  -8.8767353e-02   6.2643152e-02   6.4609758e-02  -6.0787687e-03   2.2045981e-02  -3.4344317e-02
  -2.9898543e-03   6.4570917e-04   1.1973393e-04  -4.9134605e-03   1.0971669e-02  -2.2374875e-03   2.1640424e-02   1.5507764e-02   2.6857785e-02   2.8066486e-03   1.9734677e-02  -7.9835840e-02   1.8605585e-02  -7.1386497e-02   5.5031240e-03  -1.9849465e-03   3.4059367e-02  -2.3658999e-02   8.9657008e-02  -5.4906274e-02  -4.7477227e-03   7.9503037e-02   2.9068957e-02
  -6.1308783e-03   9.0046489e-03   5.1954816e-04   2.1424710e-02  -3.1252830e-02  -4.4545289e-03   1.5210672e-02   6.0759490e-02   1.8712401e-02   4.0712979e-02   4.3940224e-02  -4.6661595e-04  -5.8568376e-03  -6.5234741e-02  -8.5942182e-02  -1.0825096e-01  -1.6926318e-01   8.4617519e-03   9.9460285e-02   2.4994148e-01   6.4844765e-02   1.4487582e-01   2.3214615e-01
   1.0493254e-03  -2.8186200e-02  -1.1735755e-02   1.7371199e-02   6.3059531e-02  -2.7878801e-02   1.7341097e-01  -4.6721578e-02  -1.5087133e-01   2.4440081e-02  -2.5466714e-02  -2.4651040e-02  -7.2331709e-02  -1.1802883e-01  -2.8935457e-01  -4.0008781e-01  -6.8502607e-02  -1.0663636e-02  -1.5196465e-01   3.0028215e-01   6.0423710e-02  -1.8199401e-01   1.6434154e-01
   6.4008389e-04   1.5097634e-03  -1.8779415e-02   3.2958123e-03   1.7033243e-02  -2.3553320e-02   1.8931195e-02   7.3666390e-03  -1.8231800e-01   5.1330792e-02  -7.5208752e-02  -1.0997282e-01   1.3082385e-01  -3.1441708e-01  -1.2987694e-01  -2.8901609e-01  -2.4874405e-01   1.3231562e-01  -2.7385337e-01   8.4487291e-02  -1.2538719e-01  -1.5149664e-01   2.0603345e-03
   3.0482164e-03  -8.2963535e-03   2.0289705e-03   1.8061087e-03   2.3052570e-02  -7.0994339e-04   8.3434004e-02  -4.7824868e-02  -2.9811316e-03  -2.1626965e-02   4.4533650e-02  -2.2546589e-03  -5.9378459e-02   1.5491464e-01  -1.5232217e-01  -9.9530850e-02   1.2563935e-01  -5.6291852e-02   1.2474957e-01   2.4724989e-01   1.4096020e-01   2.0855475e-02  -2.6174084e-02
  -1.8427767e-02   7.6523484e-05  -1.5363354e-02  -3.9166652e-02   2.2506401e-02   6.6574602e-02   6.7859086e-02  -1.3297430e-02   4.3429129e-02  -1.2145228e-01   3.8082492e-02  -4.8029767e-02   6.0128595e-02   1.1079148e-01   3.0330208e-01   6.0015814e-02  -2.0634806e-01   1.5512471e-03   2.8915745e-01  -6.3560736e-02   1.5999106e-01   2.3878160e-01   1.5318282e-01
   1.3903000e-03   3.5370232e-03   1.7813851e-02   2.6830598e-02  -2.3963404e-02  -3.9371923e-02  -1.1246466e-01   5.6159761e-02   5.1826059e-02   6.3537173e-02  -1.1523920e-02   5.2571077e-02   1.0425424e-01  -1.3163031e-01  -1.0357996e-01   3.5921237e-02   4.4560323e-02  -9.4227410e-03  -6.7870979e-02   8.4071092e-02  -1.2800201e-01  -2.0319957e-01  -3.1745296e-02
   2.9106849e-03  -6.7542230e-04  -8.5882678e-03   5.0337440e-03   2.6880853e-02  -1.5383130e-02  -6.0682779e-04  -2.3614837e-02   1.3565011e-01   7.1168144e-02  -9.0180391e-03   6.0961303e-02  -1.0397861e-01  -2.5933875e-02   1.0382247e-01   8.1124862e-03   9.5667265e-02   1.1575185e-01  -1.9493532e-01   5.0119945e-02   1.5843089e-01  -3.2255791e-01   1.7403182e-01
  -2.8549223e-03   6.5582739e-04   8.9569441e-03   1.1212501e-02  -2.4570002e-02  -2.8913389e-02  -6.6798300e-02   5.1289359e-03   1.2935914e-02  -1.3068249e-02  -1.1164648e-01   1.0860574e-01  -6.6242805e-02   9.2663245e-02   1.1459682e-02  -1.1580548e-01  -3.9467376e-02   1.2162877e-01   1.0191319e-01   7.7829271e-02   1.2865912e-01   9.9999180e-02  -1.7598576e-01
  -1.4255849e-03   1.7545141e-03  -3.4655729e-04  -2.9632676e-03  -7.3596916e-03  -5.5019219e-04  -7.5607176e-03   1.3899322e-02  -9.1841838e-03  -2.1007843e-02  -1.1045317e-02   2.4560027e-03  -1.4112417e-03   3.6206592e-02   9.0063477e-03  -2.3009975e-02  -4.7657923e-02  -4.9337946e-02   8.1826734e-02   4.9126623e-02  -2.4362355e-02   9.7280924e-02  -9.3635800e-02
  -2.0971401e-03  -1.5736758e-03   8.6927716e-04  -4.7470298e-03   1.6817716e-02  -7.4734681e-03   2.6688972e-02   1.9694490e-02   4.4508435e-02   9.1470810e-03   3.5392763e-02  -7.3554222e-02  -1.1671922e-02  -9.0947282e-02   3.4173633e-02  -3.1133693e-02   2.7330664e-02   4.6088864e-02   1.4466660e-01  -5.0774006e-02   5.9358715e-02   3.6841813e-02   1.8898924e-02
  -5.4118571e-03   8.5881464e-03   3.0751455e-03   2.5520374e-02  -2.9579985e-02  -7.0583288e-03   5.3238378e-03   6.5748372e-02   3.4189863e-02   4.0026670e-02   4.9714351e-02   1.5890421e-02   1.7033718e-02  -8.1764115e-02  -1.1468914e-01  -1.2222023e-01  -1.5380439e-01   3.7112112e-03   1.0433013e-01   2.6610594e-01   3.3579735e-02   1.1174902e-01   2.0644165e-01
  -1.5335196e-04  -3.1104704e-02  -1.4050826e-02   1.6470164e-02   6.5786672e-02  -2.8600241e-02   1.8888088e-01  -5.5717975e-02  -1.5803236e-01   2.7915209e-02  -2.4734791e-02  -1.8970660e-02  -9.6542468e-02  -9.9958826e-02  -3.0960600e-01  -4.3413489e-01  -4.9418842e-02  -3.9141780e-02  -1.6297270e-01   3.4091706e-01   6.1273319e-02  -1.7659436e-01   2.0662711e-01
  -1.3816709e-03   1.1128795e-03  -1.8349916e-02   5.7675056e-03   1.6563783e-02  -2.0131050e-02   1.7080932e-02   6.2787806e-03  -1.6594977e-01   4.3311632e-02  -8.1156501e-02  -1.0910663e-01   1.6018726e-01  -3.5686729e-01  -1.3903151e-01  -2.9707548e-01  -2.4423363e-01   1.4389772e-01  -2.8247619e-01   6.1466732e-02  -1.5000266e-01  -1.6272122e-01   4.1671607e-02
   2.8095897e-03  -1.3105942e-02   8.6983081e-05  -3.6636697e-03   2.1745122e-02  -1.2352359e-02   7.5988922e-02  -4.1996120e-02  -2.4243063e-02  -1.0791704e-02   3.5756533e-02   2.3809831e-03  -1.1163301e-01   1.2026796e-01  -9.9795022e-02  -1.4442613e-01   8.2107546e-02  -8.3642465e-02   8.2264734e-02   2.4795664e-01   1.9692688e-01   5.8309400e-02  -1.8216445e-02
  -1.5547031e-02   3.0020160e-03  -1.4800500e-02  -3.7777364e-02   2.1645289e-02   6.8511325e-02   7.9676151e-02  -1.6763136e-02   4.5161443e-02  -1.1354934e-01   7.8743275e-03  -6.2446776e-02   6.4661093e-02   1.1087949e-01   2.6320953e-01   8.6536311e-02  -1.8560775e-01   3.0807440e-02   2.6988814e-01  -1.2486123e-01   1.2963462e-01   2.6241116e-01   1.6750839e-01
   3.2049495e-03   3.6591138e-03   1.6899876e-02   2.1328623e-02  -1.6273019e-02  -3.8878717e-02  -9.6964462e-02   3.1704334e-02   3.2057380e-02   7.4723182e-02  -2.9061961e-02   3.9644763e-02   1.0211159e-01  -1.1188208e-01  -1.0665897e-01   2.5444176e-02   8.5934343e-02   2.5007365e-03  -9.3130491e-02   6.5437486e-03  -1.0965578e-01  -2.0198516e-01  -2.3448793e-02
   2.3055105e-03   1.0247650e-04  -8.0470529e-03   4.6670072e-03   2.8614167e-02  -1.3155977e-02   4.2024512e-03  -1.3748666e-02   1.3613002e-01   7.8364914e-02  -1.2450476e-03   7.0791911e-02  -1.2697008e-01  -2.3745242e-02   1.0628524e-01  -5.5115538e-03   6.1941838e-02   1.6963836e-01  -1.6426925e-01   4.6985273e-02   1.6476782e-01  -3.0581109e-01   1.5562388e-01
  -4.3154794e-03  -2.5741782e-03   1.1386411e-02   1.4289169e-02  -2.5654143e-02  -2.7600427e-02  -6.9759531e-02   1.7126686e-02   3.8394169e-02  -2.5231139e-02  -1.6277068e-01   1.5733524e-01  -6.3391326e-02   8.0325141e-02   9.8383453e-03  -1.3546520e-01   1.3677209e-02   9.6939722e-02   6.8880648e-02   7.2544775e-02   1.6942989e-01   1.1971795e-01  -1.8053094e-01
  -3.3247815e-03   2.7056278e-03   5.2487469e-04   1.1710729e-03  -2.8087286e-03   1.2829959e-02  -6.3042942e-03   2.6241637e-02  -2.2690109e-02   1.4733809e-02   4.1496563e-03   2.2676823e-02   7.0787380e-03   7.6195915e-02  -1.1258932e-02  -2.3599409e-02  -1.0670976e-01   2.5482458e-03   9.8578861e-02   2.4348650e-02  -4.2886286e-02   1.7844977e-01  -1.5623372e-01
  -1.2356144e-03  -3.7855780e-03   1.3234208e-03  -4.5357974e-03   2.3906485e-02  -1.3417869e-02   3.1612826e-02   2.2473615e-02   6.0380749e-02   2.0531886e-02   5.5817006e-02  -7.1382970e-02  -4.3543979e-02  -1.0858572e-01   6.3492695e-02  -5.6165449e-02   1.8724919e-02   1.2216792e-01   1.8971037e-01  -4.7560034e-02   1.2179707e-01  -1.8575328e-02   1.5737802e-02
  -3.2181855e-03   7.9596638e-03   4.8568707e-03   3.0830452e-02  -2.8755908e-02  -1.1126361e-02  -7.0548049e-03   6.5558371e-02   4.3639310e-02   3.9803144e-02   5.2109646e-02   2.9065870e-02   3.6048883e-02  -9.9507019e-02  -1.5162171e-01  -1.3490352e-01  -1.2483483e-01   3.5105774e-03   8.5819398e-02   2.7572136e-01  -1.1164563e-02   5.5301308e-02   1.5752402e-01
  -1.3548609e-03  -3.3641882e-02  -1.6165331e-02   1.5834356e-02   6.8763960e-02  -2.8300722e-02   2.0500819e-01  -6.5563408e-02  -1.6635540e-01   3.1571064e-02  -2.3900753e-02  -1.4644168e-02  -1.1825428e-01  -7.9006286e-02  -3.3401844e-01  -4.6432491e-01  -2.8443990e-02  -6.6350455e-02  -1.7160206e-01   3.8628328e-01   5.6620359e-02  -1.7338034e-01   2.5014983e-01
  -3.8175095e-03   1.0657581e-03  -1.7343543e-02   7.9502892e-03   1.6894848e-02  -1.5611099e-02   1.5383626e-02   5.8477927e-03  -1.4369642e-01   3.5694717e-02  -8.7316336e-02  -1.0364816e-01   1.9585941e-01  -4.0522375e-01  -1.4010111e-01  -3.0158386e-01  -2.4206635e-01   1.5791117e-01  -2.8885297e-01   3.9839411e-02  -1.8122619e-01  -1.7388552e-01   8.7063129e-02
   2.8584369e-03  -1.8050181e-02  -2.7650497e-03  -9.9318529e-03   1.9270420e-02  -2.5772664e-02   6.8132986e-02  -4.0669173e-02  -5.2295763e-02   5.3224538e-03   2.2067677e-02   7.3349039e-03  -1.8204997e-01   8.4727007e-02  -4.0691379e-02  -1.8913949e-01   4.0743648e-02  -1.1640731e-01   1.5869227e-02   2.3047856e-01   2.4862371e-01   1.0937699e-01  -2.4693797e-03
