  -5.5383493e-03   1.2342066e-03
  -4.1293286e-02   1.0334411e-01
   3.8162501e-02   3.6112338e-02
   9.1280202e-02   2.4953171e-02
   8.1150702e-02  -1.2289208e-02
  -6.6043613e-02   3.0593721e-02
  -6.1414030e-02  -2.9934031e-02
  -6.7901765e-02   7.4180584e-02
   1.7877979e-02   1.4326372e-01
  -1.2148210e-02  -2.4860598e-02
  -7.4003114e-03  -9.5308126e-04
  -1.7731307e-02   5.9040311e-02
   2.1703512e-02   2.9740967e-02
   3.0683811e-02   2.2215465e-03
   1.7531934e-02  -1.7812933e-03
  -3.5363487e-02   1.3632006e-02
  -4.7196409e-02  -4.2008942e-02
  -2.8323509e-02   7.5752084e-02
   2.4264571e-02   8.9348906e-02
  -9.4951933e-03  -3.0177755e-02
  -1.0345668e-02  -3.4948987e-03
   5.3765902e-04   2.7003796e-02
   1.0205116e-02   2.0972358e-02
  -5.1209976e-03  -1.3857276e-02
  -1.9182371e-02   3.5703324e-03
  -1.2712950e-02   3.1956192e-03
  -3.5134498e-02  -4.5137825e-02
   1.4262043e-03   7.2285076e-02
   2.5203506e-02   4.8719377e-02
  -8.4482378e-03  -2.9147051e-02
  -1.2387851e-02  -6.1685825e-03
   1.2815803e-02   5.1614238e-03
   3.0182555e-03   1.1386838e-02
  -2.2106676e-02  -2.2668509e-02
  -3.4345113e-02   5.2204250e-03
   2.4041271e-03  -1.9085257e-03
  -2.4886656e-02  -4.1333240e-02
   2.1837673e-02   6.4615232e-02
   2.1955733e-02   1.9800436e-02
  -8.4499422e-03  -2.3474658e-02
  -1.2473968e-02  -8.6585442e-03
   1.9230406e-02  -8.6827595e-03
  -6.4418757e-04   2.3023047e-03
  -2.6099672e-02  -2.4907991e-02
  -3.4111607e-02   4.5279553e-03
   1.0998880e-02  -3.0537909e-03
  -1.6246707e-02  -3.2693638e-02
   3.3867342e-02   5.3740512e-02
   1.5778465e-02   7.4276573e-04
  -8.9259083e-03  -1.4805359e-02
  -1.0416461e-02  -1.0650049e-02
   2.0551656e-02  -1.6574997e-02
  -1.6503159e-03  -5.3107155e-03
  -2.2263993e-02  -2.2083616e-02
  -2.4611210e-02   2.5664676e-03
   1.4415804e-02  -1.5989663e-03
  -9.0915567e-03  -2.1291736e-02
   3.8835517e-02   4.0758345e-02
   7.8893616e-03  -1.0416164e-02
  -9.3249044e-03  -4.5952684e-03
  -6.6963361e-03  -1.1900046e-02
   1.7953652e-02  -2.0257240e-02
  -8.7883977e-04  -1.0859694e-02
  -1.4780869e-02  -1.6065673e-02
  -1.1236107e-02   7.7138611e-05
   1.4139697e-02   1.2461173e-03
  -3.3370320e-03  -9.0496256e-03
   3.8276807e-02   2.6781990e-02
  -5.8503074e-04  -1.5609081e-02
  -9.1776954e-03   5.9590128e-03
  -2.1898886e-03  -1.2277712e-02
   1.2772992e-02  -2.1106975e-02
   8.5492774e-04  -1.4111460e-02
  -6.7061291e-03  -8.7177620e-03
   1.8486228e-03  -2.4922722e-03
   1.1616210e-02   4.4982139e-03
   1.0933925e-03   2.3832251e-03
   3.3775148e-02   1.2855718e-02
  -8.6694690e-03  -1.6623180e-02
  -8.1641047e-03   1.5935483e-02
   2.1175128e-03  -1.1779581e-02
   6.3039120e-03  -2.0143469e-02
   2.8650270e-03  -1.5137323e-02
   1.9149833e-05  -1.6285295e-03
   1.1933727e-02  -4.9078960e-03
   8.1055186e-03   7.4321107e-03
   4.2878291e-03   1.1732356e-02
   2.6814851e-02  -1.1681859e-04
  -1.5595991e-02  -1.5014974e-02
  -6.1692095e-03   2.4661230e-02
   5.3777970e-03  -1.0523688e-02
  -3.4798698e-04  -1.8073235e-02
   4.6436040e-03  -1.4236863e-02
   4.4396648e-03   4.0523377e-03
   1.7746766e-02  -7.0626183e-03
   4.5828941e-03   9.5804594e-03
   6.3566349e-03   1.8166186e-02
   1.8671674e-02  -1.1423613e-02
  -2.0841015e-02  -1.2054866e-02
  -3.3027665e-03   3.1674136e-02
   7.0509236e-03  -8.7264948e-03
  -6.3486744e-03  -1.5354454e-02
   5.8832667e-03  -1.1857277e-02
   6.3816003e-03   7.6837979e-03
   1.9232811e-02  -8.9056265e-03
   1.6922052e-03   1.0715311e-02
   7.4378011e-03   2.1319416e-02
   1.0354906e-02  -2.0573655e-02
  -2.4133403e-02  -8.6994636e-03
   1.3714033e-04   3.6698608e-02
   6.9824833e-03  -6.6675159e-03
  -1.1162891e-02  -1.2267357e-02
   6.4679074e-03  -8.5219542e-03
   6.2125475e-03   9.1210686e-03
   1.7204740e-02  -1.0400866e-02
  -2.4542391e-04   1.0824136e-02
   7.6983615e-03   2.1268885e-02
   2.5966213e-03  -2.7307644e-02
  -2.5432400e-02  -5.5905435e-03
   3.7492971e-03   3.9641765e-02
   5.3909747e-03  -4.6458680e-03
  -1.4538369e-02  -8.9814485e-03
   6.4358657e-03  -4.7734224e-03
   4.6010934e-03   8.6366559e-03
   1.2947354e-02  -1.1509695e-02
  -1.1787479e-03   1.0082250e-02
   7.3305318e-03   1.8465789e-02
  -4.1271586e-03  -3.1594321e-02
  -2.4883687e-02  -3.0801273e-03
   7.1303130e-03   4.0593427e-02
   2.7832876e-03  -2.9334084e-03
  -1.6459815e-02  -5.6119003e-03
   5.9268861e-03  -1.1282790e-03
   2.3072484e-03   6.7956012e-03
   7.8521241e-03  -1.2186527e-02
  -1.2505115e-03   8.8147359e-03
   6.5405948e-03   1.3634556e-02
  -9.5620660e-03  -3.3614730e-02
  -2.2766445e-02  -1.2792287e-03
   9.9555789e-03   3.9809354e-02
  -1.7492339e-04  -1.7310834e-03
  -1.7084891e-02  -2.2591831e-03
   5.1259291e-03   1.9600160e-03
   2.3351293e-05   4.3072508e-03
   3.1297499e-03  -1.2385156e-02
  -7.1679584e-04   7.4443091e-03
   5.5309740e-03   7.6536123e-03
  -1.3641045e-02  -3.3733115e-02
  -1.9442919e-02  -1.2361658e-04
   1.2022009e-02   3.7670539e-02
  -2.8056277e-03  -1.1368054e-03
  -1.6674518e-02   9.7055636e-04
   4.2154364e-03   4.1333388e-03
  -1.7280032e-03   1.8755160e-03
  -3.7717182e-04  -1.2076605e-02
   1.2346242e-04   6.4250195e-03
   4.4795791e-03   1.4351023e-03
  -1.6453437e-02  -3.2450952e-02
  -1.5317048e-02   5.5349208e-04
   1.3252863e-02   3.4624949e-02
  -4.5544514e-03  -1.1314767e-03
  -1.5528070e-02   3.9633635e-03
   3.3440539e-03   5.1566218e-03
  -2.6391969e-03   6.9941245e-05
  -2.2728986e-03  -1.1271883e-02
   9.7698871e-04   6.1636111e-03
   3.5228677e-03  -4.1811602e-03
  -1.8211569e-02  -3.0341872e-02
  -1.0803279e-02   9.5259622e-04
   1.3675711e-02   3.1124297e-02
  -5.0944744e-03  -1.5869781e-03
  -1.3930944e-02   6.6096466e-03
   2.6129883e-03   4.9378363e-03
  -2.6143188e-03  -7.6616383e-04
  -2.5856285e-03  -1.0039815e-02
   1.5855126e-03   6.9417290e-03
   2.7488345e-03  -8.5087636e-03
  -1.9204957e-02  -2.7969627e-02
  -6.3023145e-03   1.2519874e-03
   1.3388149e-02   2.7568360e-02
  -4.3806882e-03  -2.2940362e-03
  -1.2117923e-02   8.8257531e-03
   2.0783290e-03   3.5374262e-03
  -1.7302152e-03  -5.5974157e-04
  -1.6668014e-03  -8.5137745e-03
   1.7478638e-03   8.8583725e-03
   2.2028135e-03  -1.1066307e-02
  -1.9736572e-02  -2.5797873e-02
  -2.1788213e-03   1.5704269e-03
   1.2523763e-02   2.4265378e-02
  -2.6436191e-03  -3.0015512e-03
  -1.0255139e-02   1.0576823e-02
   1.7615876e-03   1.1617765e-03
  -1.7303012e-04   5.0356062e-04
  -4.8095877e-05  -6.8858608e-03
   1.3377382e-03   1.1801203e-02
   1.9032754e-03  -1.1601544e-02
  -2.0047305e-02  -2.4108131e-02
   1.2621916e-03   1.9498104e-03
   1.1225406e-02   2.1411409e-02
  -3.2512981e-04  -3.4607759e-03
  -8.4432431e-03   1.1890442e-02
   1.6554649e-03  -1.8667145e-03
   1.8281985e-03   2.0370367e-03
   1.7064206e-03  -5.3892586e-03
   3.1323609e-04   1.5446095e-02
   1.8596265e-03  -1.0094552e-02
  -2.0247780e-02  -2.2947172e-02
   3.7991880e-03   2.3546623e-03
   9.6269838e-03   1.9086586e-02
   2.0253815e-03  -3.4718649e-03
  -6.7372651e-03   1.2856861e-02
   1.7217807e-03  -5.1591711e-03
   4.0438234e-03   3.5341202e-03
   3.1253452e-03  -4.2677613e-03
  -1.2794189e-03   1.9287590e-02
   2.0831733e-03  -6.7467318e-03
  -2.0280882e-02  -2.2121235e-02
   5.3128115e-03   2.6825765e-03
   7.8421307e-03   1.7264579e-02
   3.8725446e-03  -2.9268054e-03
  -5.1721441e-03   1.3618877e-02
   1.8913920e-03  -8.3132170e-03
   6.2535149e-03   4.4603086e-03
   3.9143131e-03  -3.7341643e-03
  -3.3039330e-03   2.2702245e-02
   2.5865434e-03  -1.9588311e-03
  -1.9929573e-02  -2.1241237e-02
   5.7939799e-03   2.7809020e-03
   5.9585736e-03   1.5832773e-02
   4.8114542e-03  -1.8405949e-03
  -3.7837874e-03   1.4355151e-02
   2.0743059e-03  -1.0956111e-02
   8.2373394e-03   4.3548219e-03
   3.9883969e-03  -3.9255266e-03
  -5.5377487e-03   2.5036777e-02
   3.3725165e-03   3.7027099e-03
  -1.8869537e-02  -1.9808470e-02
   5.3389858e-03   2.4683279e-03
   4.0378102e-03   1.4621513e-02
   4.6564081e-03  -3.6359712e-04
  -2.6202526e-03   1.5257654e-02
   2.1795510e-03  -1.2775133e-02
   9.7660522e-03   2.9364973e-03
   3.4533189e-03  -4.8629076e-03
  -7.6881984e-03   2.5707306e-02
   4.4172682e-03   9.5532732e-03
  -1.6752986e-02  -1.7321667e-02
   4.1329275e-03   1.5623482e-03
   2.1201342e-03   1.3440463e-02
   3.4847114e-03   1.2308168e-03
  -1.7405710e-03   1.6503200e-02
   2.1386989e-03  -1.3539323e-02
   1.0600461e-02   1.9476295e-04
   2.5459572e-03  -6.4231616e-03
  -9.4226405e-03   2.4298330e-02
   5.6547032e-03   1.4852446e-02
  -1.3301747e-02  -1.3384210e-02
   2.4259338e-03  -8.5921615e-05
   2.3539652e-04   1.2119562e-02
   1.6283761e-03   2.5880266e-03
  -1.1998173e-03   1.8221362e-02
   1.9274800e-03  -1.3116786e-02
   1.0506480e-02  -3.5566847e-03
   1.5509053e-03  -8.3317638e-03
  -1.0409759e-02   2.0653050e-02
   6.9679353e-03   1.8879409e-02
  -8.3866135e-03  -7.7936348e-03
   5.0804747e-04  -2.5495043e-03
  -1.5808109e-03   1.0551020e-02
  -3.8194648e-04   3.3446466e-03
  -1.0233687e-03   2.0460517e-02
   1.5809354e-03  -1.1490459e-02
   9.2957463e-03  -7.6776410e-03
   7.1346097e-04  -1.0185133e-02
  -1.0371849e-02   1.4942709e-02
   8.1908907e-03   2.1015703e-02
  -2.0772441e-03  -6.0388657e-04
  -1.3126138e-03  -5.7788918e-03
  -3.2682676e-03   8.7268869e-03
  -1.9141702e-03   3.2200411e-03
  -1.1792165e-03   2.3151038e-02
   1.1948364e-03  -8.7767288e-03
   6.8896050e-03  -1.1266677e-02
   1.6759065e-04  -1.1508623e-02
  -9.1453814e-03   7.7030974e-03
   9.1180917e-03   2.0825899e-02
   5.3393282e-03   7.8379203e-03
  -2.7272695e-03  -9.5577518e-03
  -4.7263834e-03   6.7645851e-03
  -2.3653142e-03   2.1033406e-03
  -1.5562901e-03   2.6068324e-02
   9.1164017e-04  -5.2449473e-03
   3.3888919e-03  -1.3311115e-02
  -1.0276617e-04  -1.1846794e-02
  -6.7407912e-03  -1.6778004e-04
   9.5169055e-03   1.8124711e-02
   1.3360566e-02   1.6869966e-02
  -3.4424046e-03  -1.3470830e-02
  -5.8092005e-03   4.9123302e-03
  -1.3086720e-03   1.1309595e-04
  -1.9536855e-03   2.8804491e-02
   8.9966366e-04  -1.3253786e-03
  -8.6269940e-04  -1.2916076e-02
  -2.5131395e-04  -1.0870625e-02
  -3.3935209e-03  -7.4555134e-03
   9.1370988e-03   1.3021313e-02
   2.1276040e-02   2.5499877e-02
  -3.1989344e-03  -1.6893645e-02
  -6.3370986e-03   3.5292231e-03
   1.3686325e-03  -2.3850403e-03
  -2.0875138e-03   3.0757187e-02
   1.3336651e-03   2.4057907e-03
  -5.2326847e-03  -9.5858501e-03
  -5.0106019e-04  -8.4845616e-03
   3.9575349e-04  -1.2723930e-02
   7.7166155e-03   5.9368877e-03
   2.8172503e-02   3.2393533e-02
  -1.7973115e-03  -1.9009302e-02
  -6.1266022e-03   3.0399999e-03
   5.3617385e-03  -4.8122537e-03
  -1.6219688e-03   3.1141303e-02
   2.3758836e-03   5.2642631e-03
  -8.7945857e-03  -3.5263481e-03
  -1.0321440e-03  -4.9196177e-03
   3.8333342e-03  -1.4456927e-02
   4.9864873e-03  -2.4033437e-03
   3.2937334e-02   3.5875894e-02
   8.7240270e-04  -1.8851994e-02
  -5.0347382e-03   3.8693948e-03
   9.8935130e-03  -6.4661974e-03
  -2.2349325e-04   2.9030656e-02
   4.1563265e-03   6.5136233e-03
  -1.0391992e-02   4.0659637e-03
  -1.8452802e-03  -7.9824330e-04
   5.8264440e-03  -1.1230362e-02
   6.7975156e-04  -1.0999422e-02
   3.4268578e-02   3.3955310e-02
   4.7996458e-03  -1.5371979e-02
  -3.0105754e-03   6.3646323e-03
   1.3721291e-02  -6.6578499e-03
   2.3720702e-03   2.3438524e-02
   6.7607951e-03   5.4398905e-03
  -8.7847402e-03   1.0778059e-02
  -2.6217580e-03   2.8414935e-03
   5.0063646e-03  -1.8909149e-03
  -5.4509969e-03  -1.8622422e-02
   3.0703148e-02   2.4382315e-02
   9.8279399e-03  -7.5133633e-03
  -1.4456943e-04   1.0716635e-02
   1.5211931e-02  -4.8761801e-03
   6.2927861e-03   1.3442423e-02
   1.0238492e-02   1.4453643e-03
  -2.8645695e-03   1.2882130e-02
  -2.6047705e-03   4.5653270e-03
  -2.2075441e-04   1.4279210e-02
  -1.3605487e-02  -2.3873255e-02
   2.0671900e-02   4.7482467e-03
   1.5641879e-02   5.7057564e-03
   3.2932519e-03   1.6890689e-02
   1.2482396e-02  -9.5736931e-04
   1.1476799e-02  -1.6498698e-03
   1.4631965e-02  -5.8469553e-03
   8.0922626e-03   5.4296481e-03
  -5.3078610e-04   2.5971525e-03
  -1.1595488e-02   3.7437702e-02
  -2.3899860e-02  -2.5253563e-02
   2.5811688e-03  -2.7381206e-02
   2.1771367e-02   2.5120377e-02
   6.8325070e-03   2.4575378e-02
   3.5913433e-03   4.7633163e-03
   1.7642979e-02  -2.2105662e-02
   2.0018342e-02  -1.6498855e-02
   2.4179654e-02  -1.7419388e-02
   5.3653110e-03  -5.1028546e-03
  -3.0896688e-02   6.7124926e-02
  -3.6330819e-02  -2.1249602e-02
  -2.5090982e-02  -7.4313617e-02
   2.7613009e-02   5.1358704e-02
   9.8015711e-03   3.3155286e-02
  -1.3243553e-02   1.1334710e-02
   2.4299910e-02  -4.7564189e-02
   2.6550858e-02  -3.0189524e-02
   4.4676726e-02  -6.1826190e-02
   1.7260394e-02  -2.0740807e-02
  -5.9808661e-02   1.0228756e-01
  -5.0750659e-02  -1.0429102e-02
  -6.3701078e-02  -1.3808004e-01
   3.2463877e-02   8.4796970e-02
   1.1346615e-02   4.1710059e-02
