   2.3420529e-02   3.2996717e-02  -6.5209200e-03   1.1080106e-01   1.7938896e-01   1.3208521e-01  -1.1879329e-01  -1.2837208e-01  -8.3055414e-02  -2.4750143e-01   5.8982223e-01  -2.3443298e-01  -2.2179148e-01  -3.5188471e-01   4.1609900e-02  -2.9800235e-01   5.0292872e-02   2.4228916e-01   3.7730274e-01   6.2759838e-01   6.0216960e-02   7.1407021e-01  -5.0550009e-01
  -3.6702211e-03  -3.1582307e-02  -1.3337184e-01  -4.5575187e-02  -1.2209467e-01  -2.4772273e-01   7.2338868e-03   1.9757524e-01  -5.7812083e-03  -2.2316774e-01  -2.8906845e-01   1.3648685e-01   3.9567432e-01  -4.1668304e-01   7.3885244e-01  -2.9575466e-01  -3.7739112e-01  -1.6464420e-01   5.3960868e-01  -4.5043343e-01   6.3567378e-01  -7.4498039e-01  -1.6667020e-01
  -4.6055515e-03  -3.1177164e-02   7.6105113e-02  -1.4507674e-01  -1.3245825e-01   2.7379795e-02  -3.3363749e-02  -4.5983158e-02  -8.8371446e-02  -3.3170374e-01   1.2173561e-01  -5.5552604e-01   1.1226695e-01  -2.5835248e-01  -3.5267012e-01  -8.2498385e-01   5.3031362e-02   9.4676597e-01   9.7738494e-02   3.8978425e-01   2.1497429e-01  -1.1876000e-01   1.8142891e+00
  -1.5954473e-02  -7.6659785e-02  -8.9493956e-02  -3.9146103e-02   1.4423321e-01   1.3630626e-01  -8.0959585e-02  -1.5875861e-01   3.5714689e-02   1.1222337e-01  -7.0025712e-02   2.0149588e-01  -1.2362934e-01  -7.4076427e-02   4.1811609e-01  -9.7842650e-01  -5.5112323e-01  -2.9017828e-01   1.0155549e+00   2.9754883e-02  -8.6382534e-01  -9.6878608e-01  -2.1863295e-01
   1.3484769e-03  -1.8211340e-02   6.4656733e-03  -2.6497115e-02   5.1403072e-02   1.3634493e-01   1.1177237e-01   2.2527159e-02   2.8852126e-01   7.5587537e-01  -3.2295083e-02  -9.7084016e-02   3.9745279e-01   3.8063473e-02  -5.3996482e-02  -4.8623412e-01  -5.0427549e-01   1.5708470e-01  -9.1273126e-02  -5.7423619e-02   1.5558772e-01   7.1489491e-01   1.3020443e-01
  -1.6832483e-02  -1.7052440e-02   1.7180670e-02  -1.2785980e-01  -5.3918922e-03   8.0832051e-02  -1.5154486e-01   4.6631154e-02  -2.1832363e-02   1.1141067e-01   2.1085549e-01  -1.1606408e-01  -6.3249411e-01  -3.3257526e-02  -3.1156679e-01   2.2432991e-01  -5.8292265e-02   4.5414909e-01   1.3967391e+00  -7.3157960e-01   1.2039697e+00   3.2491223e-02  -1.4388313e-02
  -5.9922158e-03  -2.1529436e-03   1.1158776e-01   6.5530861e-02   2.2810592e-01  -1.5378303e-01   3.7530163e-01  -7.3243440e-04   1.1740171e-01   1.3496805e-01   3.7784172e-01  -1.7004289e-01  -4.2294261e-01  -5.5780835e-02  -8.2591418e-01   4.2618664e-01  -1.2430415e+00  -4.9094941e-02  -2.2314085e-01   1.0858753e+00  -6.5651274e-01   9.1589409e-02  -7.4460658e-01
  -2.4819833e-02   1.6726436e-02   8.1339487e-02  -2.4171092e-01  -1.6218222e-01  -1.8709970e-01  -5.2509550e-01  -8.5615925e-02   1.4705027e-01   1.6632296e-01  -2.9597553e-01  -3.8638738e-01  -4.4216534e-02   8.2024937e-02   2.5669352e-01   6.6017496e-01   5.0562489e-01  -2.3275072e-01  -4.0855778e-01  -2.2653381e-01  -5.0325367e-01   6.1662442e-01  -1.8784160e+00
   5.7144358e-02   6.7009274e-02   8.1362266e-03  -2.9735235e-01   1.1897380e-01  -5.1151338e-02   1.3603471e-01  -5.7002333e-01  -4.1908263e-01   1.9179547e-01  -3.5796506e-01   6.7268026e-01  -3.1450539e-02   3.8299604e-01   9.6471329e-02  -1.0915714e+00   5.4882554e-01   3.2950637e-01  -4.4476658e-01  -8.3046624e-01   8.0306579e-03  -4.0257573e-02   3.0453693e-01
   1.1395241e-01  -5.1312303e-02  -1.2303003e-01  -2.8179576e-02  -1.6041150e-01   4.6096501e-01   6.7408877e-02  -1.7938368e-01   5.7239873e-01  -7.5229859e-01   8.9343975e-02  -4.5349640e-01  -2.1956863e-01   6.2713096e-02   2.0097606e-01  -2.7591919e-01  -5.9300481e-01  -5.0239682e-01  -4.1737469e-02  -4.6176054e-01  -1.2073644e+00   1.6759049e+00   2.2736530e-01
   1.5909610e-02   2.3173826e-02   2.9841474e-03   7.4255310e-02   1.0725829e-01   7.0333026e-02  -8.0963302e-02  -8.4003305e-02  -8.6933301e-02  -1.8759174e-01   3.6193386e-01  -1.5412824e-01  -1.4374529e-01  -2.0820753e-01   1.9736239e-03  -2.1100387e-01   1.6143588e-02   1.7771795e-01   3.0179053e-01   3.8818168e-01   9.1369655e-02   4.0585841e-01  -3.7787055e-01
  -3.8548133e-03  -2.4005316e-02  -8.7498852e-02  -3.4367984e-02  -9.1083616e-02  -1.6974466e-01  -8.6263629e-04   1.2758499e-01  -7.6820650e-04  -1.7306701e-01  -1.9438762e-01   1.0444347e-01   3.2164555e-01  -2.7472509e-01   4.7505296e-01  -2.0561805e-01  -2.4785766e-01  -4.4143633e-02   3.9623407e-01  -3.0656484e-01   3.7671403e-01  -4.5902253e-01  -4.0614523e-02
  -1.2287277e-03  -1.9943500e-02   2.7617268e-02  -8.6059686e-02  -6.9637289e-02   1.2274114e-02  -2.1913670e-02  -1.7516211e-02  -5.8742439e-02  -2.0225557e-01   4.5776081e-02  -2.2676940e-01   5.1332426e-02  -1.7515540e-01  -1.5487661e-01  -6.1428212e-01  -1.8963359e-02   3.9289173e-01   1.2625160e-01   2.5311364e-01   1.6371394e-01  -1.3117890e-01   9.3507777e-01
  -3.9664960e-03  -1.8080737e-02  -1.3972578e-02  -2.4507407e-02   2.8454182e-02   5.1659780e-02  -2.6581545e-02  -4.1005755e-02  -8.5628515e-03   3.3154420e-02   8.9624323e-03  -1.3525036e-02  -3.6115707e-02  -2.5797064e-03  -1.9249199e-02  -1.8840906e-01  -9.6825834e-02   1.6948469e-02   2.1185304e-01   6.5751289e-02  -1.0359709e-01  -7.3215128e-02  -5.6246403e-03
  -2.7221167e-03  -8.0547605e-03  -2.5159105e-03  -1.0948779e-02   1.4742361e-02   2.4678357e-02   7.8289383e-04  -6.1578055e-04   5.7893487e-02   9.4517355e-02   4.7266830e-02  -9.9512318e-03  -6.5556259e-03  -1.2270060e-03  -3.5913141e-03  -5.0970516e-02  -9.0678916e-02   5.2453930e-02   2.0667867e-01  -8.5848325e-02   1.0403849e-01   5.2858219e-02  -2.0576418e-02
  -8.0141293e-03  -1.0072262e-02   3.7125515e-03  -4.9401139e-02   7.3888292e-03   4.4801930e-02  -4.5954436e-02  -1.2183080e-03   1.6383536e-02   1.0846030e-01   8.9228532e-02  -3.3872058e-02  -2.0572577e-01  -1.3787622e-02  -8.7110564e-02   2.7284764e-02  -1.1411705e-01   1.6795584e-01   5.8256775e-01  -2.3497565e-01   3.8912863e-01  -1.5662684e-02   1.0011501e-02
  -7.7872058e-03  -1.4252597e-03   7.7614367e-02   7.0197095e-02   1.4690101e-01  -9.3248010e-02   2.5646471e-01   4.8415126e-03   1.1012814e-01   9.1637323e-02   2.5805379e-01  -4.9940212e-02  -2.4867505e-01  -2.3851688e-02  -5.3759676e-01   1.6975872e-01  -8.1410296e-01   3.2229336e-03  -6.3032278e-02   6.1420939e-01  -3.6692127e-01  -9.3713193e-03  -3.0222174e-01
  -1.4248490e-02   1.1362262e-02   5.5298959e-02  -1.3999259e-01  -1.2959332e-01  -1.0341926e-01  -3.5018441e-01  -7.5618713e-02   1.0561666e-01   1.3889430e-01  -2.4622909e-01  -1.7672242e-01   1.8065511e-02  -2.7682499e-02   1.2708792e-01   2.4701118e-01   3.7521515e-01  -1.8302807e-01  -1.6266614e-01  -1.8988468e-01  -1.8690298e-01   4.1884859e-01  -9.1373178e-01
   4.2003817e-02   5.1040101e-02  -1.3089443e-04  -2.0316824e-01   7.6222923e-02  -2.9501573e-02   7.9386622e-02  -4.1967795e-01  -3.2201815e-01   1.4860249e-01  -2.6214121e-01   4.7374529e-01  -3.6365677e-02   2.6941715e-01   2.6397596e-02  -7.9482739e-01   2.5628602e-01   1.9064122e-01  -1.1890649e-01  -5.4709046e-01   1.5749543e-01  -6.0282654e-02   3.0078255e-01
   8.2332524e-02  -3.2512318e-02  -1.0236525e-01  -1.9763163e-02  -1.2085911e-01   3.6071400e-01   3.4829056e-02  -1.2265601e-01   4.3917850e-01  -5.7249281e-01  -4.6774731e-02  -3.0448973e-01  -2.0076174e-01  -3.3786713e-03   2.5959858e-01  -7.5673183e-02  -6.0500124e-01  -3.6475578e-01  -5.0828488e-02  -3.6211302e-01  -6.9966922e-01   8.4751839e-01   2.2394946e-01
   9.4024480e-03   1.5710890e-02   1.0491610e-02   4.4641384e-02   5.1504496e-02   2.0307631e-02  -5.4669487e-02  -4.7195449e-02  -8.8970667e-02  -1.3977104e-01   1.8427545e-01  -8.5506049e-02  -9.2939928e-02  -1.0081728e-01  -2.3653370e-02  -1.3094712e-01   4.3732294e-03   1.3782720e-01   2.4659469e-01   1.9023400e-01   1.2665154e-01   1.7440883e-01  -2.7662737e-01
  -4.0177307e-03  -1.9373964e-02  -5.3831154e-02  -2.4151906e-02  -6.1910206e-02  -1.0274948e-01  -8.4418309e-03   6.8271724e-02  -2.3903654e-03  -1.2788021e-01  -1.1756844e-01   8.7511026e-02   2.5134412e-01  -1.6027779e-01   2.7303084e-01  -1.5359764e-01  -1.5379616e-01   2.9298252e-02   3.0007430e-01  -1.8563736e-01   1.4472393e-01  -2.4978791e-01   3.7829813e-02
   9.7313670e-04  -1.0746207e-02  -3.5137340e-03  -4.2809079e-02  -2.6730602e-02   1.8555895e-03  -1.2264950e-02   6.0116605e-03  -3.5418672e-02  -1.0179264e-01  -1.1753736e-02  -1.6896405e-03   1.9470958e-02  -1.0301895e-01  -2.0265599e-02  -4.0855721e-01  -5.4435789e-02   1.9697619e-02   1.1802588e-01   1.4266183e-01   1.3702288e-01  -1.1042770e-01   2.9466628e-01
   2.6035430e-03   1.4004689e-02   2.9964609e-02  -1.1466015e-02  -2.9002700e-02   6.3719547e-03   4.8808137e-03   1.4469431e-02  -2.7530899e-02  -1.3078214e-02   5.2395501e-02  -1.1254684e-01   5.3198694e-03   4.1126641e-02  -2.2187783e-01   2.1975584e-01   1.5736944e-01   1.7303773e-01  -2.3201307e-01   8.3449984e-02   2.5244524e-01   3.7149846e-01   1.3613970e-01
  -3.4547663e-03  -8.2738064e-04  -7.1039161e-03   2.3878249e-03   5.1649113e-04  -2.7434968e-02  -5.1840207e-02  -1.4349498e-02  -6.3142401e-02  -2.2498960e-01   8.4598296e-02   3.0783672e-02  -1.8448064e-01  -2.6519742e-02   2.1149500e-02   1.4763496e-01   1.0980408e-01  -3.8992719e-03   3.0164824e-01  -5.6594872e-02   5.6276351e-02  -2.4268331e-01  -1.0980319e-01
  -2.6967574e-03  -4.8676433e-03  -4.3245785e-03  -1.6763128e-03   8.7488965e-03   9.3718960e-03   1.5796581e-02  -2.6840954e-02   2.6132850e-02   6.6613305e-02   5.9439629e-03   2.0117442e-02   3.7556289e-02  -3.1154616e-03   4.9114047e-02  -5.6902336e-02  -1.0790451e-01  -2.3480998e-02   6.9487188e-02   5.4233352e-02  -1.0492261e-01  -7.7143506e-02   1.8522999e-02
  -8.9866918e-03  -1.1449065e-03   4.9801949e-02   6.7299415e-02   8.2723148e-02  -4.5926375e-02   1.5801313e-01   1.0164859e-02   1.0154874e-01   5.3664069e-02   1.6947632e-01   3.2782742e-02  -1.1428978e-01   1.0012247e-02  -2.9996720e-01  -9.9094902e-03  -4.4937715e-01   3.7829874e-02   3.9956338e-02   2.4550995e-01  -1.5505891e-01  -8.3158371e-02   1.8765145e-03
  -5.9687922e-03   7.1326962e-03   3.5436535e-02  -6.3663766e-02  -9.6751553e-02  -3.8606523e-02  -2.0662859e-01  -6.1603729e-02   6.5136701e-02   1.1483953e-01  -1.8192578e-01  -3.0770403e-02   5.1097287e-02  -1.0359399e-01   3.1855819e-02  -3.8896096e-02   2.6404838e-01  -1.3911848e-01   6.7868475e-03  -1.3857928e-01   1.9622226e-02   2.5704982e-01  -2.1529711e-01
   2.9084398e-02   3.6284705e-02  -6.0660063e-03  -1.2528409e-01   4.3404377e-02  -1.2887228e-02   3.7006170e-02  -2.9263888e-01  -2.4198663e-01   1.1162452e-01  -1.7252851e-01   2.9883892e-01  -3.8016434e-02   1.6865791e-01  -2.4306344e-02  -5.2221803e-01   3.2460845e-02   7.4744892e-02   1.1012217e-01  -3.0734919e-01   2.4253638e-01  -6.6671895e-02   2.6659007e-01
   5.5762114e-02  -1.7318845e-02  -8.2568107e-02  -1.0655085e-02  -8.5772623e-02   2.7106823e-01   9.5960136e-03  -7.6982761e-02   3.2551480e-01  -4.1348215e-01  -1.3479872e-01  -1.8460734e-01  -1.7515434e-01  -5.0214404e-02   2.8802477e-01   7.5307696e-02  -5.6469929e-01  -2.4674276e-01  -5.3586465e-02  -2.7875277e-01  -2.9632117e-01   2.1983768e-01   1.9459386e-01
   4.1727322e-03   1.0182594e-02   1.5987355e-02   2.2265013e-02   1.1196968e-02  -1.7348919e-02  -3.6020522e-02  -1.8488814e-02  -8.6358429e-02  -9.6918494e-02   5.1456963e-02  -2.8806460e-02  -5.6620725e-02  -2.4944325e-02  -3.5571221e-02  -6.7348180e-02   3.4505533e-03   1.1507678e-01   1.9962682e-01   3.7413022e-02   1.5268886e-01   1.8371111e-02  -1.9754402e-01
  -4.0218964e-03  -1.6427623e-02  -2.9956601e-02  -1.5459665e-02  -3.7542442e-02  -4.8605249e-02  -1.4634204e-02   2.1495184e-02  -8.7978810e-03  -8.9374349e-02  -5.7279688e-02   7.8949890e-02   1.8801626e-01  -7.1481168e-02   1.2124054e-01  -1.2276469e-01  -8.5258877e-02   7.0210378e-02   2.3368945e-01  -8.8268867e-02  -4.0667831e-02  -9.4459035e-02   8.0266074e-02
   2.0515385e-03  -4.1884208e-03  -2.0767732e-02  -1.3793485e-02  -2.3220659e-04  -4.3157254e-03  -5.5001074e-03   2.3220725e-02  -1.8734952e-02  -3.1626539e-02  -5.1636671e-02   1.3690922e-01   8.0649808e-03  -4.4777384e-02   6.3476799e-02  -2.2784646e-01  -6.2815936e-02  -2.0232865e-01   9.1125191e-02   5.8876244e-02   1.1901834e-01  -7.7341180e-02  -1.2901195e-01
   5.1790358e-03   2.5973693e-02   4.8456375e-02  -1.9990290e-03  -4.4399276e-02  -9.3208258e-03   1.8591013e-02   2.8046149e-02  -3.0068340e-02  -3.1078589e-02   6.8681233e-02  -1.3335723e-01   1.3928639e-02   6.2005651e-02  -2.6426725e-01   3.4609536e-01   2.5503392e-01   2.1477708e-01  -4.0520262e-01   9.0400329e-02   3.3102424e-01   4.9562644e-01   2.0649096e-01
  -2.2385999e-03   3.6278359e-03  -8.3706607e-03   1.2850813e-02   2.3324109e-04  -4.0005290e-02  -6.2920145e-02  -2.0371534e-02  -1.0442144e-01  -3.0721983e-01   9.2018916e-02   3.8496567e-02  -2.0700585e-01  -3.8687396e-02   2.9499906e-02   1.8764887e-01   1.6116027e-01  -2.7699258e-02   2.6574959e-01  -8.7766919e-04   1.2239517e-02  -2.9380794e-01  -1.4818836e-01
  -4.9204989e-07  -1.1509167e-03  -7.7085785e-03   2.1301909e-02   3.9469775e-03  -1.9001683e-02   4.4097301e-02  -3.6008481e-02   1.9873067e-02   1.3571726e-02  -4.4004543e-02   5.0146327e-02   1.4367602e-01   8.1555309e-04   1.1636535e-01  -6.7477774e-02  -6.9537568e-02  -1.2887895e-01  -2.0285445e-01   1.8268502e-01  -3.4378622e-01  -1.2750756e-01   1.7464176e-02
  -9.5747834e-03  -1.1490935e-03   2.7880198e-02   5.8656676e-02   3.3649032e-02  -1.1117661e-02   7.8358634e-02   1.4071141e-02   9.2630672e-02   2.0305951e-02   1.0510897e-01   8.3959629e-02  -1.4828214e-02   4.3505342e-02  -1.1056777e-01  -1.2419090e-01  -1.4873815e-01   5.8062161e-02   9.5713637e-02  -3.0783189e-02  -8.9507116e-03  -1.3002992e-01   1.9014136e-01
   1.4735612e-04   4.0501318e-03   2.1095325e-02  -9.6386502e-03  -6.5466870e-02   7.9855051e-03  -9.3400962e-02  -4.5728395e-02   2.7473395e-02   9.3983868e-02  -1.1254433e-01   6.2022453e-02   6.1026396e-02  -1.4982791e-01  -3.4443930e-02  -2.1473225e-01   1.7032911e-01  -9.9520814e-02   1.1040714e-01  -7.8336562e-02   1.3691555e-01   1.2876980e-01   2.5338136e-01
   1.8364137e-02   2.3041330e-02  -9.8186146e-03  -6.3148099e-02   1.9259568e-02  -9.7793236e-04   7.2488223e-03  -1.8813278e-01  -1.7692589e-01   8.0435339e-02  -9.1812973e-02   1.4913641e-01  -3.7240791e-02   8.2244017e-02  -5.7498769e-02  -2.7877668e-01  -1.2803381e-01  -1.9509775e-02   2.5422175e-01  -1.1075796e-01   2.7269466e-01  -6.1618143e-02   2.1128014e-01
   3.4265712e-02  -5.5508675e-03  -6.4095875e-02  -1.1999091e-03  -5.5547172e-02   1.9331498e-01  -8.6216839e-03  -4.1776692e-02   2.3083395e-01  -2.7727954e-01  -1.8135718e-01  -9.2151494e-02  -1.4386658e-01  -7.8559517e-02   2.8893644e-01   1.7751591e-01  -4.8494350e-01  -1.4873784e-01  -4.9954369e-02  -2.0878787e-01   8.5767254e-03  -2.2705474e-01   1.4811503e-01
   2.8431072e-04   6.1614812e-03   1.9509202e-02   6.8749333e-03  -1.5502393e-02  -4.3341617e-02  -2.2458959e-02   2.2551452e-03  -7.8400976e-02  -5.6956145e-02  -4.2533581e-02   1.6465847e-02  -2.7141251e-02   2.4452737e-02  -3.5479121e-02  -2.3574564e-02   6.2154680e-03   1.0250757e-01   1.5457847e-01  -7.1367272e-02   1.6102232e-01  -7.1513228e-02  -1.3651074e-01
  -3.8122116e-03  -1.4304950e-02  -1.3696001e-02  -8.5816315e-03  -1.9581302e-02  -7.9386856e-03  -1.9005266e-02  -1.2430334e-02  -1.7984428e-02  -5.8667938e-02  -1.1954754e-02   7.4227027e-02   1.3354496e-01  -6.2439622e-03   1.0753002e-02  -1.0214732e-01  -3.4872058e-02   9.0231885e-02   1.8508588e-01  -1.4112950e-02  -1.7081888e-01   2.2796788e-02   9.8146479e-02
   2.1716052e-03  -4.4834064e-04  -2.7623786e-02   3.0310492e-03   1.3418653e-02  -6.9306226e-03  -2.0658147e-03   3.3844047e-02  -8.5224357e-03   9.7924802e-03  -7.5415303e-02   2.0656548e-01   9.5231825e-03  -1.7065942e-03   1.0768204e-01  -8.4756163e-02  -5.3185293e-02  -3.0521880e-01   5.9111530e-02   1.1691535e-03   9.9817988e-02  -4.6036350e-02  -3.6735908e-01
   5.1432771e-03   2.4513344e-02   4.8701334e-02   3.3047733e-03  -3.3597200e-02  -5.7997540e-03   1.9920093e-02   1.7831117e-02  -2.3468520e-02  -2.8174975e-02   6.6788833e-02  -1.0993403e-01   2.5357674e-03   6.6231019e-02  -2.1463900e-01   2.9256566e-01   2.4447530e-01   1.8044899e-01  -3.9778342e-01   9.2157929e-02   2.4836100e-01   4.2231010e-01   2.1539110e-01
  -2.5866847e-04   5.7358567e-03  -7.3237438e-03   1.9810545e-02   6.5946437e-03  -3.0473954e-02  -4.9087222e-02  -2.0618332e-02  -9.4977228e-02  -2.4830745e-01   8.0903973e-02   2.6494326e-02  -1.4124349e-01  -4.0251794e-02   2.7674732e-02   1.3829268e-01   1.2434239e-01  -3.1089501e-02   1.6590183e-01   5.4972996e-02  -2.3302485e-02  -2.0802728e-01  -1.4921364e-01
   8.7844108e-04   1.2265242e-03  -7.5876442e-03   2.6002263e-02  -2.7802117e-03  -3.6680964e-02   4.9437168e-02  -3.4100480e-02   7.8909992e-03  -2.9948968e-02  -6.7381243e-02   6.1276516e-02   1.5794535e-01   5.9366942e-04   1.3473283e-01  -3.9034256e-02  -2.3465705e-02  -1.6429452e-01  -2.9802262e-01   1.9740584e-01  -3.9878619e-01  -1.5351936e-01   1.2098170e-02
  -9.5702244e-03  -1.3223697e-03   1.1427370e-02   4.6104517e-02  -2.2654129e-03   1.2438000e-02   1.5896348e-02   1.5628629e-02   8.4137713e-02  -8.8419230e-03   5.8630627e-02   1.0981163e-01   5.4836696e-02   7.4138353e-02   3.4086822e-02  -1.8507205e-01   8.9359826e-02   6.7133322e-02   1.1466078e-01  -2.2614584e-01   8.3880113e-02  -1.5227704e-01   2.8579917e-01
   4.2804395e-03   2.0223327e-03   1.1497620e-02   2.5470952e-02  -3.7193156e-02   3.7926567e-02  -8.5186462e-03  -3.0024476e-02  -5.6154566e-03   7.6123688e-02  -4.5716659e-02   1.1252194e-01   5.3756770e-02  -1.7132124e-01  -7.6721993e-02  -3.0010378e-01   9.2364739e-02  -6.3517213e-02   1.6075876e-01  -1.4875887e-02   1.8551287e-01   3.0115813e-02   5.3177998e-01
   9.7559467e-03   1.1544815e-02  -1.1647280e-02  -1.5806565e-02   2.4567844e-03   6.7360586e-03  -1.1667282e-02  -1.0490380e-01  -1.2477105e-01   5.4513953e-02  -2.2150519e-02   2.5207701e-02  -3.4761358e-02   1.1004395e-02  -7.5461554e-02  -6.8045412e-02  -2.3199099e-01  -9.3424630e-02   3.2672739e-01   4.4141615e-02   2.5849691e-01  -4.7763745e-02   1.4364203e-01
   1.7679418e-02   3.0591336e-03  -4.7304664e-02   8.2029010e-03  -3.0444719e-02   1.2816225e-01  -2.0418257e-02  -1.6135156e-02   1.5397808e-01  -1.6499017e-01  -1.9372124e-01  -2.4654392e-02  -1.0841168e-01  -9.0072999e-02   2.6600018e-01   2.3415861e-01  -3.7832633e-01  -7.0241352e-02  -4.0357931e-02  -1.4961349e-01   2.2369328e-01  -5.1623016e-01   9.2418256e-02
  -2.3577092e-03   3.2716078e-03   2.1195650e-02  -2.3079938e-03  -3.1040174e-02  -5.9265264e-02  -1.2644137e-02   1.5739014e-02  -6.6054618e-02  -2.1379912e-02  -1.0375472e-01   5.1179352e-02  -1.4898343e-03   5.2286275e-02  -2.6392943e-02   2.0225268e-03   9.3556375e-03   9.4746400e-02   1.1026831e-01  -1.4114833e-01   1.4881871e-01  -1.0910211e-01  -8.9672168e-02
  -3.4010004e-03  -1.2528062e-02  -3.1957718e-03  -3.6298018e-03  -8.3650483e-03   1.9773759e-02  -2.1530258e-02  -3.4374185e-02  -2.8102488e-02  -3.6120105e-02   2.0142423e-02   7.0697411e-02   8.8620901e-02   3.7743256e-02  -6.5043187e-02  -8.6160180e-02   2.0441783e-03   9.8032358e-02   1.4713040e-01   3.8134986e-02  -2.4642537e-01   1.1164659e-01   1.0152248e-01
   1.5764683e-03   6.7810408e-04  -2.7319234e-02   1.0055781e-02   1.7652542e-02  -6.8470136e-03  -1.8408100e-03   3.8499144e-02  -4.1243455e-03   2.6355294e-02  -8.5285319e-02   2.2426269e-01   1.7564767e-02   2.6341899e-02   1.2246997e-01   1.5341416e-02  -3.3848171e-02  -3.2093649e-01   3.0915963e-02  -3.2199680e-02   7.4814758e-02  -2.4288631e-02  -4.5765907e-01
   3.7097918e-03   1.5796425e-02   3.7944012e-02   4.8861739e-03  -1.0435072e-02   7.4022842e-03   1.3982112e-02  -1.8887193e-03  -1.2920853e-02  -1.2641273e-02   5.4828250e-02  -6.9449918e-02  -1.7807934e-02   5.9816089e-02  -1.2871265e-01   1.5035205e-01   1.7233906e-01   1.0537641e-01  -2.9097999e-01   9.2220299e-02   1.0010985e-01   2.5581684e-01   1.7985026e-01
   1.6081740e-03   6.0598609e-03  -4.8712387e-03   2.2889110e-02   1.4149145e-02  -1.2405310e-02  -2.4728552e-02  -1.7190950e-02  -5.9925673e-02  -1.2743152e-01   6.0815464e-02   6.5573824e-03  -4.3402672e-02  -3.4820956e-02   2.0320873e-02   5.4144504e-02   5.0505962e-02  -2.2635293e-02   5.6115086e-02   9.2452033e-02  -4.4621068e-02  -7.0488949e-02  -1.2684565e-01
   6.1975421e-04   2.3841598e-03  -5.2495773e-03   1.8745401e-02  -8.5410500e-03  -4.2771999e-02   4.1176111e-02  -2.5688880e-02  -2.6569604e-03  -5.1964808e-02  -7.1415654e-02   5.8732305e-02   1.1997490e-01  -1.1101649e-03   1.2236501e-01   2.0285622e-03   1.3576869e-02  -1.4966475e-01  -2.7602545e-01   1.4156651e-01  -3.3787678e-01  -1.5172253e-01   6.0341778e-03
  -9.0219857e-03  -1.5986093e-03  -1.1447014e-04   3.1389758e-02  -2.6893711e-02   2.6432747e-02  -3.0999440e-02   1.4316713e-02   7.6455648e-02  -3.3829839e-02   2.4657152e-02   1.1654311e-01   9.9878410e-02   9.9651088e-02   1.3855867e-01  -2.0454575e-01   2.6776820e-01   6.8118415e-02   1.0682328e-01  -3.5255462e-01   1.3547819e-01  -1.5365361e-01   3.1144112e-01
   6.6569468e-03   8.6450382e-04   5.7679642e-03   4.5155661e-02  -1.2930428e-02   5.3573211e-02   5.0784965e-02  -1.6094742e-02  -3.2782069e-02   6.1154479e-02   1.2981679e-02   1.3131319e-01   3.4834960e-02  -1.7328783e-01  -9.8951062e-02  -3.1578083e-01   2.8413747e-02  -3.0860740e-02   1.7094050e-01   4.6357372e-02   1.8461647e-01  -4.3638831e-02   6.5985543e-01
   3.1149005e-03   1.9572875e-03  -1.1893985e-02   1.8024513e-02  -8.3321766e-03   1.0906684e-02  -2.1605486e-02  -4.1236447e-02  -8.3538238e-02   3.3316343e-02   3.4942042e-02  -7.3017449e-02  -3.1194072e-02  -4.4869663e-02  -8.0675645e-02   1.0786900e-01  -2.8726556e-01  -1.4822510e-01   3.4169838e-01   1.5969189e-01   2.1092636e-01  -2.7993267e-02   7.1515375e-02
   5.6734967e-03   8.8485256e-03  -3.2431607e-02   1.7134136e-02  -1.0560070e-02   7.5727980e-02  -2.6618228e-02   1.1314068e-03   9.3266320e-02  -7.6738151e-02  -1.7938209e-01   2.0902858e-02  -7.0567317e-02  -8.7101168e-02   2.2363024e-01   2.5059469e-01  -2.5661127e-01  -9.9513743e-03  -2.5673507e-02  -9.9001969e-02   3.5994457e-01  -6.7264586e-01   3.4249331e-02
  -3.9487853e-03   1.2103848e-03   2.1292604e-02  -6.4643597e-03  -3.8117913e-02  -6.7128175e-02  -6.0902416e-03   2.3059485e-02  -5.1224220e-02   6.6596635e-03  -1.3801689e-01   7.6328593e-02   2.0092680e-02   6.3098884e-02  -1.2101167e-02   1.4231550e-02   1.2256180e-02   8.8381816e-02   6.8903550e-02  -1.7953335e-01   1.1805532e-01  -1.0976546e-01  -5.3461982e-02
  -2.8471297e-03  -1.0933335e-02   3.0442700e-03  -5.8873966e-04  -3.2184945e-03   3.5964476e-02  -2.2526409e-02  -4.5956222e-02  -3.7715061e-02  -2.1377254e-02   4.0873352e-02   6.7107940e-02   5.3035763e-02   6.3079218e-02  -1.1110324e-01  -7.3295246e-02   2.7855028e-02   9.9541767e-02   1.1638470e-01   7.0674177e-02  -2.7506277e-01   1.7714284e-01   9.8147652e-02
   5.4560417e-04  -3.0926739e-04  -2.2674594e-02   9.8271297e-03   1.5600910e-02  -4.9904491e-03  -4.2637336e-03   3.8396430e-02  -4.4728964e-03   2.3565597e-02  -8.3944487e-02   2.0568256e-01   2.7359960e-02   4.0728651e-02   1.1660730e-01   7.3317605e-02  -1.1899650e-02  -2.7921695e-01   1.1246705e-02  -4.4073065e-02   4.3613425e-02  -1.4523284e-02  -4.3948307e-01
   1.8333214e-03   4.8553098e-03   2.2617860e-02   3.7666614e-03   1.4468319e-02   2.2738415e-02   5.1642057e-03  -2.1302881e-02  -1.6542550e-03   7.8529355e-03   3.9174022e-02  -3.0681393e-02  -3.8820375e-02   4.7616243e-02  -4.5783080e-02  -9.0743543e-03   7.8196127e-02   1.8928888e-02  -1.5012096e-01   9.2049436e-02  -4.4681301e-02   7.4080460e-02   1.1997912e-01
   2.8342053e-03   5.1897710e-03  -1.7957622e-03   2.2123014e-02   1.9544174e-02   5.0301002e-03  -6.3133614e-04  -1.2111272e-02  -1.8531259e-02  -2.0134316e-03   3.8990858e-02  -1.2182816e-02   4.5880092e-02  -2.6298140e-02   1.1380448e-02  -2.7405023e-02  -2.3125331e-02  -7.8573849e-03  -2.7195462e-02   1.0216464e-01  -4.8111209e-02   5.9738256e-02  -9.3800463e-02
  -2.4194343e-04   2.4824591e-03  -1.9198149e-03   5.1977996e-03  -1.1820599e-02  -3.8645230e-02   2.6808779e-02  -1.4387300e-02  -7.9012519e-03  -4.9041612e-02  -6.2878546e-02   4.7414820e-02   6.0892324e-02  -2.0367074e-03   9.3812994e-02   3.8747976e-02   3.2975942e-02  -1.0554597e-01  -1.8851628e-01   5.1606799e-02  -2.1911919e-01  -1.2603428e-01   1.1667105e-03
  -8.0030674e-03  -1.9476730e-03  -7.4054776e-03   1.6079966e-02  -4.2002419e-02   3.2785865e-02  -6.3987867e-02   1.0115226e-02   6.9522459e-02  -5.4449268e-02  -1.1167756e-03   1.0992341e-01   1.2538575e-01   1.1836210e-01   2.0816945e-01  -1.9390377e-01   3.9054055e-01   6.3881281e-02   8.1077318e-02  -4.2198690e-01   1.5680117e-01  -1.3867659e-01   2.8779315e-01
   7.5405692e-03   3.3352694e-04   2.9794289e-03   5.2826492e-02   6.7782328e-03   5.7791745e-02   8.7847540e-02  -4.9143368e-03  -5.3281108e-02   4.9061645e-02   6.0040997e-02   1.2809173e-01   9.3796041e-03  -1.6069549e-01  -1.0426234e-01  -2.8223078e-01  -2.3349934e-02  -1.5493360e-03   1.5326491e-01   1.0058283e-01   1.5119396e-01  -9.7295481e-02   6.7571607e-01
  -1.7513887e-03  -5.6356645e-03  -1.0954661e-02   3.9880195e-02  -1.4370183e-02   1.2266994e-02  -2.4448919e-02   4.9919295e-03  -5.1391232e-02   1.6329410e-02   7.8636750e-02  -1.4626703e-01  -2.7030991e-02  -8.5728339e-02  -7.5658210e-02   2.4821655e-01  -3.0238459e-01  -1.8506267e-01   3.1317512e-01   2.3902839e-01   1.4087726e-01  -5.1935255e-03   1.4423221e-03
  -2.2166228e-03   1.2205171e-02  -1.9589559e-02   2.5196005e-02   4.1991616e-03   3.5558854e-02  -2.8212358e-02   1.1439368e-02   4.6619245e-02  -1.1642747e-02  -1.4569062e-01   4.7870232e-02  -3.2187630e-02  -7.2434203e-02   1.6670906e-01   2.3367527e-01  -1.3029393e-01   3.4043297e-02  -7.2170694e-03  -5.5110420e-02   4.2977805e-01  -7.2189351e-01  -2.0972113e-02
  -4.7302608e-03  -2.5079339e-04   2.0129949e-02  -6.9993152e-03  -3.9362119e-02  -6.8956253e-02  -2.7315053e-03   2.5530880e-02  -3.6056813e-02   2.4138683e-02  -1.5076414e-01   9.2887234e-02   3.5785202e-02   6.0974221e-02   3.5421519e-03   1.9014491e-02   1.5699619e-02   8.1840416e-02   3.4022754e-02  -1.9513121e-01   7.3896913e-02  -8.7940954e-02  -2.4653067e-02
  -2.2329891e-03  -9.5690932e-03   6.1939346e-03   6.5175510e-04  -2.8000993e-03   4.2639906e-02  -2.2549524e-02  -4.9138947e-02  -4.5918914e-02  -1.3551169e-02   5.2183030e-02   6.3040564e-02   2.6015502e-02   7.2734707e-02  -1.3158985e-01  -6.4447768e-02   4.3373733e-02   9.8345648e-02   9.1705055e-02   8.6491109e-02  -2.6831714e-01   2.2159825e-01   9.3072053e-02
  -6.4689053e-04  -2.7307945e-03  -1.5991397e-02   4.8504763e-03   9.9598397e-03  -2.2491234e-03  -8.4967509e-03   3.5032790e-02  -8.2205537e-03   7.7108446e-03  -7.4409488e-02   1.6464950e-01   3.5549130e-02   4.3762275e-02   9.7470209e-02   9.4726390e-02   7.1434850e-03  -2.0595666e-01   1.3767020e-03  -3.8195098e-02   8.7601773e-03  -1.5217498e-02  -3.5131606e-01
   1.6581782e-04  -4.7813906e-03   7.7233518e-03   1.1280638e-03   3.4267425e-02   3.5242199e-02  -3.2382222e-03  -3.4894018e-02   8.5044211e-03   2.7305037e-02   2.4092493e-02  -3.9201531e-03  -5.5301917e-02   3.3110820e-02   1.2257332e-02  -1.3833601e-01  -8.8297644e-03  -5.7216807e-02  -2.1179794e-02   9.1419355e-02  -1.4507208e-01  -7.3699391e-02   5.4906255e-02
   3.2202334e-03   3.6604835e-03   1.2572504e-03   1.8045129e-02   2.1378486e-02   1.6838845e-02   1.6560654e-02  -7.0252724e-03   1.6482780e-02   9.3199989e-02   2.0204437e-02  -2.3899107e-02   1.0317476e-01  -1.7969961e-02   4.1924870e-03  -8.5628439e-02  -7.4423356e-02   9.8027273e-03  -6.6352258e-02   8.3459194e-02  -3.3906337e-02   1.4943332e-01  -6.0442101e-02
  -1.3171545e-03   1.7480932e-03   1.3879838e-03  -9.9939392e-03  -1.2273829e-02  -2.7193790e-02   1.1679110e-02  -2.8942792e-03  -6.8159500e-03  -2.4679638e-02  -4.7511077e-02   3.1604492e-02   2.2987391e-03  -7.8945016e-04   5.9498317e-02   6.2939019e-02   3.3154420e-02  -5.0377869e-02  -7.6007693e-02  -4.4319185e-02  -8.6977877e-02  -8.4971722e-02  -2.0239149e-03
  -6.6031785e-03  -2.3520318e-03  -1.1159699e-02   1.4959340e-03  -4.9256064e-02   3.3418404e-02  -8.4773021e-02   3.4732167e-03   6.2891570e-02  -7.0409839e-02  -2.1887411e-02   9.4935177e-02   1.3617800e-01   1.2934779e-01   2.4844636e-01  -1.6309151e-01   4.6282940e-01   5.6957227e-02   4.4758844e-02  -4.4592130e-01   1.5739341e-01  -1.1197368e-01   2.3287182e-01
   7.2212156e-03   1.7688486e-04   2.2175172e-03   5.1664575e-02   2.1771160e-02   5.3614914e-02   1.0634259e-01   3.2037626e-03  -6.6997588e-02   3.9782528e-02   9.3850627e-02   1.1114570e-01  -1.8042916e-02  -1.3791701e-01  -9.5426903e-02  -2.1818539e-01  -6.4749222e-02   2.4299342e-02   1.1837705e-01   1.4408314e-01   9.9561516e-02  -1.3504769e-01   6.1381249e-01
  -5.0700550e-03  -1.1222605e-02  -9.2464437e-03   5.1464190e-02  -1.6812346e-02   1.1556480e-02  -2.2039954e-02   3.6220496e-02  -2.6680892e-02   3.0882785e-03   1.0879148e-01  -1.9592057e-01  -2.2634411e-02  -1.1236659e-01  -6.2879751e-02   3.5351526e-01  -2.8612787e-01  -2.0506324e-01   2.5451601e-01   2.8597183e-01   5.8667890e-02   1.7976448e-02  -6.1554652e-02
  -6.5537346e-03   1.3548277e-02  -8.7704763e-03   3.2050807e-02   1.4116273e-02   6.6802001e-03  -2.6279574e-02   1.6340428e-02   1.1726589e-02   3.2126593e-02  -9.9562782e-02   5.9725316e-02   4.9705399e-03  -4.9080511e-02   1.0028140e-01   1.9107298e-01  -8.2984204e-03   6.4021494e-02   1.3329026e-02  -1.6459387e-02   4.4639117e-01  -6.8906498e-01  -6.9213526e-02
  -4.9450119e-03  -1.2765906e-03   1.8081492e-02  -5.3533083e-03  -3.7073753e-02  -6.6530084e-02  -2.5390271e-03   2.4531164e-02  -2.2387162e-02   2.9427737e-02  -1.4704811e-01   1.0173885e-01   4.3697379e-02   4.9569931e-02   1.7238064e-02   2.1896151e-02   2.0763298e-02   7.4919102e-02   8.6871667e-03  -1.9616264e-01   2.2890568e-02  -5.5525599e-02  -4.5359645e-04
  -1.6426646e-03  -8.5833881e-03   7.1504563e-03   2.7908164e-04  -5.4735204e-03   4.2030749e-02  -2.2267133e-02  -4.5917022e-02  -5.2318857e-02  -1.1455446e-02   5.6049647e-02   5.8413567e-02   6.5096989e-03   7.0036569e-02  -1.3069663e-01  -6.1275400e-02   4.8760488e-02   9.6178692e-02   7.2943122e-02   8.9195112e-02  -2.3898472e-01   2.4634702e-01   8.8765506e-02
  -1.7670459e-03  -5.8503346e-03  -9.0112026e-03  -2.5920250e-03   2.9066361e-03   6.2398453e-04  -1.3598949e-02   2.9916510e-02  -1.3911032e-02  -1.4940625e-02  -5.9807843e-02   1.1277311e-01   4.0151734e-02   3.8353877e-02   7.1112357e-02   8.7994909e-02   1.9526963e-02  -1.2212516e-01   1.2590069e-04  -1.8917715e-02  -2.5603159e-02  -2.2466105e-02  -2.2771277e-01
  -9.4259784e-04  -1.1167976e-02  -3.5011192e-03  -1.9990692e-03   4.5755975e-02   4.2527778e-02  -9.2092806e-03  -4.0650005e-02   1.6478950e-02   4.1837180e-02   1.1789048e-02   7.7999809e-03  -6.4806198e-02   1.8845733e-02   3.8937713e-02  -2.1399793e-01  -7.1048436e-02  -1.0976282e-01   6.9208101e-02   8.9110114e-02  -1.8547665e-01  -1.6475663e-01  -5.7517721e-04
   2.8293798e-03   1.9087762e-03   3.7937734e-03   1.1667385e-02   1.9767169e-02   2.1450077e-02   2.4132626e-02  -2.9790391e-03   3.8553395e-02   1.4373749e-01   6.9576241e-03  -2.6188320e-02   1.2100456e-01  -1.1831464e-02   1.0577181e-03  -1.1356251e-01  -9.5017615e-02   2.7989274e-02  -6.0224843e-02   4.2654152e-02  -5.9491978e-03   1.8768677e-01  -3.4204680e-02
  -2.3474193e-03   4.5927245e-04   3.9537684e-03  -2.3417274e-02  -1.0374988e-02  -1.1996440e-02  -9.4124668e-04   6.8676360e-03  -4.2477787e-04   1.3136923e-02  -2.9763501e-02   1.4817791e-02  -4.3311511e-02   2.9205654e-03   2.6080253e-02   7.3224059e-02   1.7593905e-02   1.4383408e-03   3.2998367e-02  -1.2671701e-01   2.8753061e-02  -3.8939722e-02  -4.0110073e-03
  -4.9214769e-03  -2.7838756e-03  -1.2094032e-02  -1.1328345e-02  -5.0237610e-02   3.0068588e-02  -9.5100635e-02  -4.8312579e-03   5.5908575e-02  -8.1526390e-02  -3.9809546e-02   7.5564743e-02   1.3658345e-01   1.3242495e-01   2.6456057e-01  -1.2030769e-01   4.9075535e-01   4.9404482e-02   3.6587818e-03  -4.3491659e-01   1.4530721e-01  -7.7830099e-02   1.6160624e-01
   6.0020977e-03   1.8153522e-04   2.6476299e-03   4.4511594e-02   3.2154993e-02   4.3923743e-02   1.1005218e-01   8.4788209e-03  -7.4314521e-02   3.3027701e-02   1.1439283e-01   8.7036246e-02  -4.3606145e-02  -1.0862731e-01  -7.5433633e-02  -1.3953701e-01  -9.7455010e-02   4.6483481e-02   7.4925002e-02   1.7450362e-01   4.1357095e-02  -1.6008362e-01   5.0383354e-01
  -7.0889013e-03  -1.4859115e-02  -7.1744875e-03   5.4568314e-02  -1.6681399e-02   9.4497022e-03  -1.6122732e-02   5.5076939e-02  -7.9531854e-03  -6.8372878e-03   1.2590216e-01  -2.2396860e-01  -1.8255815e-02  -1.2595096e-01  -4.4737678e-02   4.2543357e-01  -2.4710582e-01  -2.0941191e-01   1.7788275e-01   3.0489258e-01  -2.6356823e-02   3.9263920e-02  -1.1403441e-01
  -7.9598218e-03   1.3310318e-02   1.4390168e-04   3.7451741e-02   1.9653950e-02  -1.2319939e-02  -2.1906761e-02   1.7407818e-02  -1.3765719e-02   5.7216426e-02  -4.7250962e-02   5.9902353e-02   3.9373076e-02  -2.0084785e-02   2.9259394e-02   1.3065138e-01   1.0220012e-01   8.2389376e-02   3.4074985e-02   1.8084636e-02   4.2297349e-01  -5.9780587e-01  -1.0778044e-01
  -4.8064332e-03  -1.9795657e-03   1.5522434e-02  -2.8303953e-03  -3.3081789e-02  -6.1263211e-02  -5.2622362e-03   2.1381560e-02  -1.1409231e-02   2.2888268e-02  -1.3152950e-01   1.0366486e-01   4.2932966e-02   3.2206041e-02   2.6626678e-02   2.6946218e-02   2.8091385e-02   6.8158941e-02  -5.7229476e-03  -1.8943929e-01  -2.8569038e-02  -2.1119992e-02   2.1378097e-02
  -1.1441009e-03  -8.1243203e-03   6.6118149e-03  -1.4520923e-03  -9.6308701e-03   3.6299324e-02  -2.2325217e-02  -3.8133482e-02  -5.6883843e-02  -1.3820459e-02   5.4423306e-02   5.3133347e-02  -6.6123166e-03   5.8493152e-02  -1.1319170e-01  -6.4922656e-02   4.4303591e-02   9.3476779e-02   5.9979434e-02   8.2782139e-02  -1.9877655e-01   2.5304509e-01   8.5677298e-02
  -2.6443266e-03  -8.9866302e-03  -2.9239061e-03  -1.0592019e-02  -3.9279761e-03   3.0826953e-03  -1.8685801e-02   2.4359119e-02  -2.0167111e-02  -3.8824907e-02  -4.3156521e-02   5.9274760e-02   4.0388330e-02   2.7619303e-02   4.2403008e-02   6.2676441e-02   2.3235815e-02  -4.3186303e-02   4.8560575e-03   9.1332143e-03  -5.5008424e-02  -3.1468697e-02  -9.7215896e-02
  -1.4008919e-03  -1.3759828e-02  -9.5861669e-03  -4.9078388e-03   4.8689957e-02   4.4314673e-02  -1.1992016e-02  -3.8999631e-02   2.1483729e-02   4.9640726e-02   2.7778858e-03   6.5782859e-03  -6.6958202e-02   6.9817308e-03   3.8964962e-02  -2.3268743e-01  -1.0124809e-01  -1.3340506e-01   1.1111011e-01   8.3760279e-02  -1.6976485e-01  -1.9705113e-01  -3.7901101e-02
   1.8971031e-03   2.6737690e-04   5.4999490e-03   4.3591419e-03   1.5781008e-02   1.9680536e-02   2.2513594e-02  -3.5478327e-04   4.6143959e-02   1.5073876e-01  -8.4391564e-05  -1.9666496e-02   1.0432277e-01  -8.4579545e-03   2.6976498e-03  -1.1374949e-01  -8.7319780e-02   4.4810423e-02  -1.9563399e-02  -9.6844569e-03   2.9103136e-02   1.8008723e-01  -1.9390247e-02
  -3.1835560e-03  -1.0940261e-03   5.3660781e-03  -3.2954014e-02  -7.0297119e-03   3.4551621e-03  -9.5253885e-03   1.3608900e-02   9.0977054e-03   5.4618459e-02  -1.2777184e-02  -2.4106669e-04  -7.1047977e-02   8.3590966e-03  -2.6589740e-03   7.2458968e-02  -7.4186339e-03   4.0492917e-02   1.2124908e-01  -1.8417739e-01   1.1193372e-01   2.1390249e-03  -5.7670690e-03
  -3.0603427e-03  -3.1925559e-03  -1.0886131e-02  -2.1659334e-02  -4.6457083e-02   2.4189430e-02  -9.6731984e-02  -1.3887744e-02   4.7936923e-02  -8.7842860e-02  -5.6136822e-02   5.4771720e-02   1.3023473e-01   1.2798237e-01   2.6098269e-01  -7.1953917e-02   4.8121232e-01   4.2662494e-02  -3.7715368e-02  -3.9832918e-01   1.2712886e-01  -4.0002664e-02   8.5863715e-02
   4.1852883e-03   2.0736393e-04   3.5697204e-03   3.3802177e-02   3.8200631e-02   3.1226645e-02   1.0267409e-01   1.1427999e-02  -7.5887280e-02   2.8168238e-02   1.2284782e-01   6.0537687e-02  -6.4420282e-02  -7.5912634e-02  -4.7846720e-02  -5.8775637e-02  -1.2285921e-01   6.4703108e-02   2.9677216e-02   1.9097127e-01  -1.4298387e-02  -1.7457366e-01   3.7028666e-01
  -8.0620426e-03  -1.6658611e-02  -5.1022338e-03   5.0997975e-02  -1.4855360e-02   6.5047609e-03  -8.2888499e-03   6.4224826e-02   6.0678843e-03  -1.3867990e-02   1.3102046e-01  -2.3293018e-01  -1.4074267e-02  -1.2797536e-01  -2.3539505e-02   4.6661973e-01  -1.9337054e-01  -1.9945794e-01   9.3892186e-02   3.0054282e-01  -1.0613545e-01   5.6921878e-02  -1.5404043e-01
  -7.0778694e-03   1.1919591e-02   7.3637587e-03   4.1262988e-02   2.1430136e-02  -2.3173469e-02  -1.6114897e-02   1.6117502e-02  -3.2077376e-02   6.6893949e-02   5.8224351e-03   5.1662754e-02   6.9782207e-02   1.1613302e-02  -4.1821297e-02   5.9909107e-02   1.9584467e-01   9.1473812e-02   5.3142834e-02   4.9310336e-02   3.7202915e-01  -4.6959110e-01  -1.3518052e-01
  -4.4810113e-03  -2.4295518e-03   1.2793864e-02  -4.6527266e-04  -2.8697134e-02  -5.4195613e-02  -1.0319714e-02   1.7258009e-02  -3.5778820e-03   6.8263425e-03  -1.0846589e-01   9.9377234e-02   3.4086397e-02   1.1937152e-02   3.0396499e-02   3.6388264e-02   3.7571995e-02   6.2229764e-02  -9.9599831e-03  -1.7981065e-01  -7.5261504e-02   9.9825700e-03   4.2445354e-02
  -7.7764006e-04  -8.2707945e-03   5.1442236e-03  -4.2296974e-03  -1.3919589e-02   2.7347812e-02  -2.3228470e-02  -2.7408185e-02  -5.9752989e-02  -1.9436262e-02   4.9154505e-02   4.6941230e-02  -1.4458248e-02   4.1502302e-02  -8.4533059e-02  -7.5312026e-02   3.0926973e-02   8.9926773e-02   5.2175306e-02   7.1333401e-02  -1.5681520e-01   2.4433536e-01   8.3033296e-02
  -3.1820240e-03  -1.1598963e-02   1.5844498e-03  -1.7719043e-02  -9.4432766e-03   4.8157850e-03  -2.3055422e-02   1.9351937e-02  -2.5864143e-02  -5.9595410e-02  -2.7145940e-02   1.0973251e-02   3.6447905e-02   1.4501561e-02   1.5177907e-02   2.7999749e-02   1.7820573e-02   2.0964183e-02   1.2336803e-02   4.1396409e-02  -7.5708316e-02  -3.7745207e-02   1.8841076e-02
  -1.3030460e-03  -1.3042113e-02  -1.0549936e-02  -7.2553826e-03   4.4817132e-02   4.1697558e-02  -1.1871216e-02  -3.1778472e-02   2.2902272e-02   5.0606329e-02  -3.5374872e-03  -2.8178975e-03  -6.2749718e-02  -5.6802849e-04   2.2922545e-02  -2.0488124e-01  -1.0057661e-01  -1.2943949e-01   1.0720732e-01   7.4619019e-02  -1.1383734e-01  -1.8195195e-01  -5.4867431e-02
   7.3559043e-04  -1.0235601e-03   6.2634295e-03  -2.3588324e-03   1.0889350e-02   1.3658513e-02   1.4178705e-02   1.0151201e-03   4.1227345e-02   1.2521919e-01  -1.5303161e-03  -7.1242226e-03   6.5700487e-02  -7.3663393e-03   8.0226240e-03  -9.3773811e-02  -6.0667060e-02   5.8616181e-02   3.8841057e-02  -6.1784295e-02   6.3578329e-02   1.4188139e-01  -1.7268543e-02
  -3.7604131e-03  -2.6538274e-03   5.4897298e-03  -3.7699005e-02  -3.2335150e-03   1.6345196e-02  -1.3836410e-02   1.6581866e-02   1.9236498e-02   9.0572253e-02   1.4732599e-03  -1.1694297e-02  -8.1501464e-02   1.4153185e-02  -2.4822822e-02   6.5244957e-02  -3.4861217e-02   6.2409001e-02   1.8082699e-01  -2.1215834e-01   1.5768091e-01   3.0664950e-02  -8.4004579e-03
  -1.1205126e-03  -3.5067746e-03  -8.1475487e-03  -2.9057525e-02  -3.9331091e-02   1.6936054e-02  -9.1398251e-02  -2.2834989e-02   3.8548740e-02  -8.9651114e-02  -7.1400895e-02   3.4618568e-02   1.1993833e-01   1.1674861e-01   2.4147509e-01  -2.2905405e-02   4.4158397e-01   3.7474932e-02  -7.5804619e-02  -3.4419667e-01   1.0798506e-01  -1.7627333e-03   1.4713660e-02
   2.0565446e-03   1.9574189e-04   4.4480580e-03   2.1532408e-02   4.0280995e-02   1.7563710e-02   8.7675063e-02   1.2622963e-02  -7.2427126e-02   2.4259229e-02   1.2116817e-01   3.4825285e-02  -7.8659157e-02  -4.2474232e-02  -1.6743420e-02   1.4994534e-02  -1.4202870e-01   7.8549807e-02  -1.2153872e-02   1.9399754e-01  -6.0645439e-02  -1.7999613e-01   2.3257206e-01
  -8.2362980e-03  -1.6783604e-02  -3.3285065e-03   4.2506212e-02  -1.2061197e-02   3.1417003e-03   7.2772488e-05   6.6208360e-02   1.6506382e-02  -1.8430705e-02   1.2564924e-01  -2.2573061e-01  -1.0238136e-02  -1.2023450e-01  -1.4524369e-03   4.8047174e-01  -1.3209538e-01  -1.7681622e-01   1.1412203e-02   2.7785867e-01  -1.7413093e-01   6.9726168e-02  -1.8088496e-01
  -4.5373333e-03   9.7830202e-03   1.3165517e-02   4.3467573e-02   2.0184871e-02  -2.7788642e-02  -9.7980643e-03   1.3744868e-02  -4.5151406e-02   6.4815560e-02   5.5176640e-02   3.8005247e-02   9.5291096e-02   4.3295230e-02  -1.0896902e-01  -1.4470694e-02   2.6907271e-01   9.3373379e-02   6.8894254e-02   7.7649697e-02   3.0481116e-01  -3.2322251e-01  -1.5094253e-01
  -4.0829914e-03  -2.6614344e-03   1.0176949e-02   1.0584944e-03  -2.4744789e-02  -4.6058022e-02  -1.6823974e-02   1.3128257e-02   1.3060139e-03  -1.5035138e-02  -8.1670399e-02   8.9587823e-02   1.9204301e-02  -8.4369474e-03   2.8176866e-02   5.0708277e-02   4.8352761e-02   5.7442526e-02  -6.6612406e-03  -1.7006630e-01  -1.1360696e-01   3.5251734e-02   6.3688231e-02
  -5.5233002e-04  -9.0027566e-03   3.2263832e-03  -7.6992053e-03  -1.7359160e-02   1.6734638e-02  -2.5253433e-02  -1.5134858e-02  -6.1069122e-02  -2.7214636e-02   4.1914415e-02   3.9443333e-02  -1.8065342e-02   2.2057516e-02  -5.0551776e-02  -9.1037188e-02   1.0390628e-02   8.4937416e-02   4.8200557e-02   5.8681723e-02  -1.1900436e-01   2.2389900e-01   7.9633113e-02
  -3.3558157e-03  -1.3340053e-02   4.2528395e-03  -2.3067184e-02  -1.3025119e-02   5.7248783e-03  -2.6268631e-02   1.5526866e-02  -3.0258080e-02  -7.4438507e-02  -1.3953582e-02  -2.7598363e-02   2.9238399e-02   1.4936530e-03  -7.6528391e-03  -8.1558760e-03   4.1598185e-03   6.5550596e-02   1.9402682e-02   7.3695170e-02  -8.5390033e-02  -3.7965235e-02   1.0664797e-01
  -8.4271084e-04  -1.0080301e-02  -7.4419471e-03  -8.9962768e-03   3.6855636e-02   3.6390745e-02  -9.8122687e-03  -2.1418124e-02   2.0470517e-02   4.5809676e-02  -8.2145642e-03  -1.5184158e-02  -5.3986184e-02  -2.4537180e-03   2.2427122e-03  -1.4806130e-01  -7.5855770e-02  -1.0379688e-01   6.8311673e-02   6.2023330e-02  -3.8319971e-02  -1.3708471e-01  -5.4252256e-02
  -3.5399203e-04  -1.8118648e-03   6.1537740e-03  -7.0659758e-03   6.4864826e-03   5.8877338e-03   2.5030244e-03   1.6074976e-03   2.7723980e-02   8.2382626e-02   1.2930082e-03   7.5959322e-03   2.0333462e-02  -7.5505605e-03   1.4445680e-02  -6.2584700e-02  -2.7193679e-02   6.7960927e-02   9.7762651e-02  -1.0338224e-01   9.0543194e-02   9.1378280e-02  -2.6461393e-02
  -4.0704504e-03  -4.0225284e-03   4.4144747e-03  -3.7764571e-02   1.7811996e-04   2.4877163e-02  -1.4451916e-02   1.5549057e-02   2.7748430e-02   1.1419284e-01   1.1964711e-02  -1.8509565e-02  -7.8480534e-02   1.8803447e-02  -3.9619132e-02   5.6044160e-02  -5.8621418e-02   6.7195847e-02   2.1067183e-01  -2.1144700e-01   1.6928375e-01   4.2539363e-02  -1.2887092e-02
   8.0248202e-04  -3.6494881e-03  -4.4129226e-03  -3.3358370e-02  -3.0135267e-02   9.2160764e-03  -8.0748485e-02  -3.0967508e-02   2.7613566e-02  -8.7414847e-02  -8.5595044e-02   1.6492259e-02   1.0765552e-01   9.9598413e-02   2.0938274e-01   2.3044235e-02   3.7939151e-01   3.3913847e-02  -1.0776811e-01  -2.7927012e-01   9.1485962e-02   3.3956489e-02  -4.5262145e-02
  -1.2917495e-04   1.5366308e-04   4.9134570e-03   9.2548324e-03   3.8858750e-02   4.5155187e-03   6.8186153e-02   1.2527596e-02  -6.4585558e-02   2.0205226e-02   1.1168011e-01   1.1825010e-02  -8.5557737e-02  -1.0788479e-02   1.3762727e-02   7.5606329e-02  -1.5575670e-01   8.7550780e-02  -4.6635755e-02   1.8518612e-01  -9.3233246e-02  -1.7762586e-01   1.0529130e-01
  -7.8391856e-03  -1.5438650e-02  -2.0731733e-03   3.0737338e-02  -8.8706275e-03  -3.4895958e-04   7.8187168e-03   6.3319055e-02   2.4350882e-02  -2.0952547e-02   1.1162835e-01  -2.0555360e-01  -6.8925767e-03  -1.0479411e-01   1.9597194e-02   4.7086846e-01  -6.9349271e-02  -1.4343869e-01  -6.2541510e-02   2.4174338e-01  -2.2551586e-01   7.6932843e-02  -1.9487634e-01
  -9.2536206e-04   7.2695275e-03   1.7860194e-02   4.4162750e-02   1.6740610e-02  -2.8093965e-02  -3.6803157e-03   1.1294019e-02  -5.4566477e-02   5.4783505e-02   9.7337960e-02   2.1604150e-02   1.1533707e-01   7.2572222e-02  -1.6882870e-01  -8.6935812e-02   3.2001671e-01   8.9878779e-02   8.0112196e-02   1.0316903e-01   2.3088574e-01  -1.7452135e-01  -1.5543591e-01
  -3.6784030e-03  -2.6845032e-03   7.8761629e-03   1.4337607e-03  -2.1643065e-02  -3.7360786e-02  -2.3698829e-02   9.7103477e-03   3.8997593e-03  -3.8337092e-02  -5.4444766e-02   7.5102209e-02   1.3500570e-03  -2.6437667e-02   2.0325251e-02   6.9055678e-02   5.9072780e-02   5.3461717e-02   3.9050822e-04  -1.6120425e-01  -1.4168371e-01   5.4055997e-02   8.5436337e-02
  -4.4944388e-04  -1.0208227e-02   1.2650392e-03  -1.1486156e-02  -1.9361714e-02   5.6762181e-03  -2.8408873e-02  -2.4975297e-03  -6.0896923e-02  -3.6191794e-02   3.4112709e-02   3.0261963e-02  -1.8367662e-02   2.5593943e-03  -1.6839048e-02  -1.0973065e-01  -1.4775825e-02   7.7987293e-02   4.6125408e-02   4.8090660e-02  -8.8158274e-02   1.9606879e-01   7.4454266e-02
  -3.2027577e-03  -1.4074087e-02   5.1470252e-03  -2.6240966e-02  -1.4487651e-02   5.8602858e-03  -2.8177008e-02   1.3185741e-02  -3.3044669e-02  -8.2182159e-02  -5.1077362e-03  -5.3974504e-02   2.0145395e-02  -9.5072171e-03  -2.4067025e-02  -3.9823818e-02  -1.5794752e-02   9.0036581e-02   2.3385309e-02   1.0251489e-01  -8.3509949e-02  -3.0365975e-02   1.5946580e-01
  -2.3872610e-04  -6.1080851e-03  -1.8587343e-03  -1.0246646e-02   2.7604313e-02   3.0122325e-02  -7.0382261e-03  -1.0405330e-02   1.4583872e-02   3.6969053e-02  -1.2204817e-02  -2.6440358e-02  -4.2877547e-02   1.6960979e-03  -1.4468333e-02  -8.0784233e-02  -3.6706785e-02  -6.5110327e-02   9.2142326e-03   4.7538563e-02   3.7334726e-02  -8.0646255e-02  -4.1601312e-02
  -1.1485015e-03  -2.0421673e-03   5.3609472e-03  -8.6978161e-03   3.5601250e-03  -1.4368432e-03  -9.2184383e-03   1.9328587e-03   1.0146967e-02   3.6901199e-02   6.7962675e-03   2.0760790e-02  -1.8191731e-02  -7.9670842e-03   1.8739751e-02  -2.8120042e-02   1.8945903e-03   7.1671115e-02   1.4377170e-01  -1.2765489e-01   1.0516503e-01   4.4671347e-02  -4.3576918e-02
  -4.1395712e-03  -5.0698822e-03   2.3988065e-03  -3.4004763e-02   2.6671499e-03   2.8366688e-02  -1.2344213e-02   1.0780850e-02   3.3046323e-02   1.2206401e-01   1.8401747e-02  -2.0516021e-02  -6.6994321e-02   2.1174566e-02  -4.6944241e-02   4.8113492e-02  -7.4552061e-02   5.8113587e-02   2.1409392e-01  -1.8656041e-01   1.5501994e-01   3.7593596e-02  -1.9868352e-02
   2.6206488e-03  -3.5588428e-03  -1.4232227e-04  -3.4645414e-02  -1.9950449e-02   1.7567876e-03  -6.6307928e-02  -3.7743520e-02   1.5263675e-02  -8.1654681e-02  -9.8336803e-02   1.3300156e-03   9.4598441e-02   7.7480227e-02   1.6804644e-01   6.2761731e-02   3.0194230e-01   3.1492067e-02  -1.3144529e-01  -2.0913638e-01   7.9656582e-02   6.4460259e-02  -8.9750455e-02
  -2.1599998e-03   1.2243000e-04   4.7431175e-03  -1.9080010e-03   3.4504970e-02  -6.7376769e-03   4.6925737e-02   1.1464273e-02  -5.2978907e-02   1.5006061e-02   9.6756281e-02  -7.3994688e-03  -8.5263738e-02   1.6886197e-02   4.0207372e-02   1.1920939e-01  -1.6466744e-01   9.1275016e-02  -7.1042889e-02   1.6682243e-01  -1.0993431e-01  -1.6895673e-01  -1.4230160e-03
  -7.0692637e-03  -1.2864844e-02  -1.4717652e-03   1.7180731e-02  -5.6989791e-03  -3.7767546e-03   1.4081812e-02   5.7503183e-02   3.0448433e-02  -2.1835921e-02   9.1021170e-02  -1.7569009e-01  -4.1804484e-03  -8.3932730e-02   3.8054251e-02   4.4190362e-01  -9.9701660e-03  -1.0164107e-01  -1.2284852e-01   1.9685316e-01  -2.5729735e-01   7.8214859e-02  -1.9705339e-01
   3.2349321e-03   4.6950584e-03   2.1758527e-02   4.3543884e-02   1.1956629e-02  -2.5887719e-02   1.7066755e-03   9.4677804e-03  -6.1508898e-02   4.0507918e-02   1.2986614e-01   4.7598989e-03   1.2970694e-01   9.7497261e-02  -2.1872587e-01  -1.5322352e-01   3.4834971e-01   8.2459409e-02   8.6098942e-02   1.2558541e-01   1.5784083e-01  -3.6175163e-02  -1.4972272e-01
  -3.2950896e-03  -2.4957859e-03   6.0107272e-03   6.9988079e-04  -1.9499534e-02  -2.8472938e-02  -2.9839952e-02   7.4523940e-03   5.0842137e-03  -5.8893423e-02  -2.9502477e-02   5.6917200e-02  -1.6042130e-02  -4.0039209e-02   7.7213530e-03   8.9734921e-02   6.8179940e-02   4.9252860e-02   7.2133590e-03  -1.5293538e-01  -1.5897706e-01   6.6719576e-02   1.0752678e-01
  -4.3063286e-04  -1.1714172e-02  -4.0987183e-04  -1.5226346e-02  -1.9685385e-02  -4.9039309e-03  -3.2448861e-02   9.5263784e-03  -5.9241693e-02  -4.5505007e-02   2.6824374e-02   1.9221160e-02  -1.6161128e-02  -1.5233198e-02   1.1941565e-02  -1.2866943e-01  -4.1544130e-02   6.8862680e-02   4.3661484e-02   4.1988115e-02  -6.4649210e-02   1.6525013e-01   6.6970768e-02
  -2.8023116e-03  -1.3859122e-02   4.5627218e-03  -2.7289444e-02  -1.3994070e-02   5.3384650e-03  -2.8900310e-02   1.2371138e-02  -3.4338803e-02  -8.3181636e-02  -1.4078738e-03  -6.7472268e-02   1.0791078e-02  -1.7291197e-02  -3.2939168e-02  -6.3073132e-02  -3.9360170e-02   9.7031639e-02   2.2361898e-02   1.2519546e-01  -7.1297117e-02  -1.4811656e-02   1.7660865e-01
   3.1814531e-04  -2.2230264e-03   4.4784625e-03  -1.1138102e-02   1.9327575e-02   2.4275266e-02  -4.6370708e-03  -9.4816384e-04   6.4943445e-03   2.6017886e-02  -1.5970333e-02  -3.4360676e-02  -3.1728767e-02   1.0988788e-02  -2.3159351e-02  -1.8552034e-02   6.9676243e-03  -2.2992140e-02  -5.4752906e-02   3.3718867e-02   9.8558788e-02  -2.7783579e-02  -2.2955559e-02
  -1.5376024e-03  -1.7629537e-03   4.1283450e-03  -6.7680152e-03   2.5437043e-03  -6.8215186e-03  -1.8451884e-02   2.3152933e-03  -7.3985563e-03  -2.3577415e-04   1.3454987e-02   2.9678035e-02  -4.0785810e-02  -7.9588557e-03   1.8204631e-02   3.8002669e-03   1.8944780e-02   6.9137042e-02   1.6947187e-01  -1.3216963e-01   1.0540016e-01   1.2365458e-02  -6.4015973e-02
  -4.0095603e-03  -5.7265723e-03  -1.9312543e-04  -2.7698339e-02   4.0174473e-03   2.7124614e-02  -8.5590617e-03   3.0376214e-03   3.4377457e-02   1.1434383e-01   2.1016351e-02  -1.8369697e-02  -5.1727129e-02   2.0890940e-02  -4.7306501e-02   4.3170305e-02  -8.0835385e-02   4.0201759e-02   1.9669008e-01  -1.4425658e-01   1.2529289e-01   1.9250674e-02  -2.9488585e-02
   4.2549159e-03  -3.2063391e-03   4.2696189e-03  -3.3217015e-02  -9.6293954e-03  -4.8533270e-03  -4.9458787e-02  -4.2716217e-02   1.7695117e-03  -7.2862933e-02  -1.0899762e-01  -1.0224998e-02   8.1407141e-02   5.1480489e-02   1.2110938e-01   9.3546280e-02   2.1605289e-01   2.9324421e-02  -1.4547685e-01  -1.3835804e-01   7.2963450e-02   8.7351392e-02  -1.1660578e-01
  -3.8760468e-03   1.4400356e-04   3.8279853e-03  -1.1234603e-02   2.7914010e-02  -1.5365363e-02   2.6136494e-02   9.6950992e-03  -3.8322322e-02   7.9853114e-03   7.8583093e-02  -2.2337597e-02  -7.8577115e-02   3.8689252e-02   6.0359799e-02   1.4373994e-01  -1.6929566e-01   8.9463403e-02  -8.3984329e-02   1.4145092e-01  -1.1089307e-01  -1.5587126e-01  -8.1641515e-02
  -6.0894242e-03  -9.3347350e-03  -1.5782439e-03   3.1353735e-03  -2.8118995e-03  -7.0149908e-03   1.8284973e-02   5.0317153e-02   3.5475312e-02  -2.1429672e-02   6.6008600e-02  -1.3940644e-01  -2.2145668e-03  -6.0037608e-02   5.2846628e-02   3.9766846e-01   4.2477693e-02  -5.4084304e-02  -1.6628571e-01   1.4741240e-01  -2.6835745e-01   7.3616852e-02  -1.8896963e-01
   7.4986790e-03   2.3108863e-03   2.5136636e-02   4.1879017e-02   6.6772799e-03  -2.2710990e-02   6.0247167e-03   8.6750435e-03  -6.6794983e-02   2.5384308e-02   1.5134585e-01  -1.0650709e-02   1.3853790e-01   1.1667751e-01  -2.5669953e-01  -2.1035695e-01   3.5509919e-01   7.2300810e-02   8.6682990e-02   1.4432855e-01   9.1150061e-02   8.2298161e-02  -1.3544926e-01
  -2.9355016e-03  -2.0969816e-03   4.6141617e-03  -8.3505677e-04  -1.8203221e-02  -1.9676559e-02  -3.4276706e-02   6.5362772e-03   5.7438484e-03  -7.3364315e-02  -8.8988317e-03   3.6292836e-02  -2.9845493e-02  -4.7831224e-02  -8.3674737e-03   1.1065492e-01   7.4236126e-02   4.3261822e-02   1.0506691e-02  -1.4428764e-01  -1.6602653e-01   7.3707963e-02   1.2945270e-01
  -4.4783121e-04  -1.3325342e-02  -1.5581972e-03  -1.8599456e-02  -1.8356913e-02  -1.4317413e-02  -3.6933109e-02   2.0182406e-02  -5.6140961e-02  -5.4381967e-02   2.0737656e-02   6.4882133e-03  -1.2071009e-02  -3.0129180e-02   3.2585770e-02  -1.4537652e-01  -6.6765516e-02   5.7796705e-02   3.8471396e-02   4.1793873e-02  -4.7277983e-02   1.3537569e-01   5.7200442e-02
  -2.2532762e-03  -1.2901619e-02   2.9387563e-03  -2.6599850e-02  -1.1958272e-02   4.2646419e-03  -2.8762118e-02   1.2950439e-02  -3.4582076e-02  -7.9010417e-02  -2.9076197e-03  -6.8862137e-02   2.8010440e-03  -2.1392106e-02  -3.4053617e-02  -7.5802559e-02  -6.3546163e-02   9.1137959e-02   1.5273994e-02   1.4002497e-01  -5.1500044e-02   7.4068743e-03   1.6206905e-01
   6.9793218e-04   7.9257922e-04   1.0055046e-02  -1.1718453e-02   1.3482723e-02   1.9775021e-02  -3.2806994e-03   5.2507902e-03  -1.7836366e-03   1.4887240e-02  -1.9320020e-02  -3.8574020e-02  -2.2692306e-02   2.3171061e-02  -2.4143362e-02   2.8369968e-02   4.6633731e-02   1.3606221e-02  -1.1031911e-01   2.3504808e-02   1.3703819e-01   1.1050011e-02  -3.1774425e-03
  -1.5241904e-03  -1.1169924e-03   2.7059427e-03  -1.5100682e-03   3.3373592e-03  -9.6062393e-03  -2.3763377e-02   2.7855240e-03  -2.1811763e-02  -2.3140136e-02   2.0014494e-02   3.3201159e-02  -4.4154510e-02  -7.5597315e-03   1.1736238e-02   2.9644691e-02   2.1068637e-02   6.0756572e-02   1.7370313e-01  -1.1884309e-01   9.1989357e-02  -1.4939593e-03  -8.2866063e-02
  -3.7280321e-03  -5.9725647e-03  -2.9550127e-03  -2.0241142e-02   4.2827767e-03   2.2205733e-02  -4.0084601e-03  -6.5014140e-03   3.1837890e-02   9.4263604e-02   2.0410619e-02  -1.3427275e-02  -3.6143819e-02   1.8509197e-02  -4.1905851e-02   4.1573309e-02  -7.7779851e-02   1.8778190e-02   1.6488370e-01  -9.2289496e-02   9.0300678e-02  -6.5031583e-03  -4.1256084e-02
   5.6362396e-03  -2.6043220e-03   8.4868304e-03  -2.9546148e-02   1.9892792e-04  -1.0167600e-02  -3.1445063e-02  -4.5444982e-02  -1.2602227e-02  -6.1490888e-02  -1.1679996e-01  -1.7771583e-02   6.8346188e-02   2.2953139e-02   7.2544497e-02   1.1317575e-01   1.2787283e-01   2.6310788e-02  -1.4945390e-01  -7.0577927e-02   7.0528977e-02   1.0076930e-01  -1.2578495e-01
  -5.1737292e-03   2.3808564e-04   2.1414828e-03  -1.8360639e-02   1.9886345e-02  -2.0878849e-02   7.5314979e-03   7.5513214e-03  -2.1585584e-02  -1.0782273e-03   5.9025073e-02  -3.2865432e-02  -6.6655158e-02   5.3441697e-02   7.3440705e-02   1.4864950e-01  -1.7010282e-01   8.2152948e-02  -8.5584855e-02   1.1152953e-01  -9.8267563e-02  -1.4048918e-01  -1.3337181e-01
  -5.0233584e-03  -5.1456673e-03  -2.3731985e-03  -1.0314529e-02  -3.4410207e-04  -9.9701363e-03   2.0135216e-02   4.2924757e-02   3.9896715e-02  -2.0013046e-02   3.8793128e-02  -9.9847346e-02  -1.0328187e-03  -3.5462442e-02   6.3426945e-02   3.4211807e-01   8.5677730e-02  -3.7105934e-03  -1.9147898e-01   9.7080028e-02  -2.5938038e-01   6.3549433e-02  -1.7253652e-01
   1.1506145e-02   2.9663355e-04   2.8206104e-02   3.9477352e-02   1.6745898e-03  -1.9757409e-02   9.1111840e-03   9.0628873e-03  -7.0924690e-02   1.2292260e-02   1.6134435e-01  -2.3227457e-02   1.4230827e-01   1.2937103e-01  -2.8155341e-01  -2.5649836e-01   3.4245135e-01   6.0370079e-02   8.2156341e-02   1.5865718e-01   3.4198587e-02   1.7449221e-01  -1.1476040e-01
  -2.5894824e-03  -1.5112582e-03   3.6425259e-03  -2.7064985e-03  -1.7505469e-02  -1.1199007e-02  -3.6306822e-02   6.9077121e-03   6.5939390e-03  -7.9703899e-02   6.0163898e-03   1.4768144e-02  -3.7814457e-02  -4.9165249e-02  -2.6354764e-02   1.2969231e-01   7.6158823e-02   3.3780930e-02   8.2696389e-03  -1.3419160e-01  -1.6406951e-01   7.5095645e-02   1.5050211e-01
  -4.5281780e-04  -1.4858550e-02  -2.0413835e-03  -2.1358705e-02  -1.5596682e-02  -2.2069990e-02  -4.1318756e-02   2.8958486e-02  -5.1771702e-02  -6.2170708e-02   1.6131878e-02  -7.3727527e-03  -6.5378320e-03  -4.1354571e-02   4.3562769e-02  -1.5805290e-01  -8.7542999e-02   4.5497998e-02   2.8507720e-02   4.7871131e-02  -3.4102776e-02   1.0953369e-01   4.5576646e-02
  -1.6528627e-03  -1.1499337e-02   7.7224112e-04  -2.4761709e-02  -8.9463677e-03   2.6764434e-03  -2.8198281e-02   1.4693043e-02  -3.4402732e-02  -7.2035125e-02  -8.9721578e-03  -6.0001763e-02  -2.3846885e-03  -2.2021972e-02  -2.8084985e-02  -7.7392281e-02  -8.5430384e-02   7.7760059e-02   1.9524637e-03   1.4626218e-01  -2.7934631e-02   3.3924187e-02   1.2297528e-01
   8.4384819e-04   2.5322137e-03   1.3777282e-02  -1.1918384e-02   1.0722141e-02   1.7129100e-02  -3.1082110e-03   7.1849604e-03  -7.9061466e-03   5.4062331e-03  -2.1474692e-02  -4.0071013e-02  -1.7505249e-02   3.4935972e-02  -2.0593488e-02   5.5460843e-02   7.5977880e-02   3.7770692e-02  -1.4807121e-01   1.9454007e-02   1.5024853e-01   3.0295079e-02   1.4731601e-02
  -1.1996313e-03  -3.1476657e-04   1.3164031e-03   6.1118210e-03   5.4265845e-03  -9.9094601e-03  -2.4844682e-02   3.0996930e-03  -3.1212260e-02  -3.0946883e-02   2.5580050e-02   3.1751487e-02  -3.0548055e-02  -7.4877392e-03   3.7486020e-04   4.7771162e-02   1.0127491e-02   4.8156924e-02   1.6015621e-01  -9.3017002e-02   6.7958445e-02   1.4170376e-03  -9.5782336e-02
  -3.3434939e-03  -5.8236790e-03  -5.4879423e-03  -1.2899702e-02   3.7111813e-03   1.5103900e-02   6.2652262e-04  -1.6375917e-02   2.6257908e-02   6.7171548e-02   1.7453797e-02  -7.5188519e-03  -2.2251944e-02   1.5342515e-02  -3.2642089e-02   4.2803372e-02  -6.7319844e-02  -1.7012274e-03   1.2510571e-01  -3.8495010e-02   5.8313828e-02  -3.2627064e-02  -5.3958081e-02
   6.7069962e-03  -1.7996508e-03   1.2233702e-02  -2.4232152e-02   9.0871961e-03  -1.3917963e-02  -1.3391619e-02  -4.5451331e-02  -2.7669764e-02  -4.8009405e-02  -1.2089245e-01  -2.1183375e-02   5.5459935e-02  -6.3985117e-03   2.6363909e-02   1.2018521e-01   4.2791095e-02   2.1324866e-02  -1.4394017e-01  -8.5699761e-03   7.0557901e-02   1.0373189e-01  -1.1918066e-01
  -6.0046518e-03   3.9770044e-04  -2.7826767e-04  -2.3219982e-02   1.1271512e-02  -2.3161409e-02  -7.7426751e-03   5.5227165e-03  -4.0665463e-03  -1.1943238e-02   3.9571248e-02  -3.9215348e-02  -5.0771474e-02   6.0873706e-02   7.9873461e-02   1.3491022e-01  -1.6745183e-01   6.9788377e-02  -7.7513004e-02   7.9205352e-02  -7.5699960e-02  -1.2476964e-01  -1.5813899e-01
  -3.9550619e-03  -6.0980081e-04  -3.7739294e-03  -2.2312770e-02   1.6692418e-03  -1.2563177e-02   1.9598330e-02   3.6120884e-02   4.3935370e-02  -1.7802178e-02   1.1513107e-02  -5.9975678e-02  -5.5618651e-04  -1.2377771e-02   6.9714412e-02   2.7903236e-01   1.1847409e-01   4.6368423e-02  -1.9877612e-01   4.8876758e-02  -2.3264863e-01   4.8818305e-02  -1.4990492e-01
   1.4983143e-02  -1.2411808e-03   3.1091933e-02   3.6655468e-02  -2.4116809e-03  -1.7824980e-02   1.0947020e-02   1.0557512e-02  -7.4144933e-02   3.4231014e-03   1.6033399e-01  -3.2093758e-02   1.4180749e-01   1.3554373e-01  -2.9293058e-01  -2.9070215e-01   3.1355921e-01   4.7487268e-02   7.3179443e-02   1.6782220e-01  -1.1534899e-02   2.3696594e-01  -9.0205017e-02
  -2.2447551e-03  -7.9431545e-04   2.9920013e-03  -4.4205088e-03  -1.7090703e-02  -3.2336763e-03  -3.5585977e-02   8.3298929e-03   8.0739678e-03  -7.7351950e-02   1.4607975e-02  -5.8988082e-03  -3.8958841e-02  -4.4240699e-02  -4.4395102e-02   1.4497692e-01   7.3377292e-02   1.9415615e-02   6.0681413e-05  -1.2195197e-01  -1.5471792e-01   7.0397357e-02   1.6986491e-01
  -4.0481638e-04  -1.6164782e-02  -1.8259730e-03  -2.3350051e-02  -1.1762147e-02  -2.7841630e-02  -4.5060950e-02   3.5582863e-02  -4.6512541e-02  -6.8404290e-02   1.2891783e-02  -2.1440868e-02   1.5820733e-04  -4.8406380e-02   4.4875150e-02  -1.6577373e-01  -1.0153561e-01   3.3079450e-02   1.2365645e-02   5.9604799e-02  -2.3065349e-02   8.9805507e-02   3.2775842e-02
  -1.0815200e-03  -9.9844491e-03  -1.4627035e-03  -2.2421124e-02  -5.5858013e-03   5.2277253e-04  -2.7654908e-02   1.7328864e-02  -3.4458377e-02  -6.4937012e-02  -1.8409865e-02  -4.3451476e-02  -3.6448000e-03  -1.9878523e-02  -1.6503754e-02  -6.8361575e-02  -1.0244570e-01   6.1990456e-02  -1.6924522e-02   1.4409697e-01  -4.9121291e-03   6.1715173e-02   6.8065906e-02
   7.6496419e-04   2.9298647e-03   1.5054566e-02  -1.1575195e-02   1.1030189e-02   1.6500594e-02  -3.7820246e-03   4.6988819e-03  -9.8536697e-03  -8.4465595e-04  -2.1344944e-02  -4.0488160e-02  -1.7177253e-02   4.2788664e-02  -1.6597066e-02   6.3234059e-02   9.1350771e-02   4.5404600e-02  -1.6346783e-01   2.3075008e-02   1.4002809e-01   2.8702288e-02   2.9338879e-02
  -7.0606006e-04   4.0491496e-04   1.2792237e-04   1.4548813e-02   8.0367956e-03  -8.4508381e-03  -2.2304668e-02   2.8567122e-03  -3.4855026e-02  -2.6670210e-02   2.9613491e-02   2.6925407e-02  -6.2890336e-03  -8.7845000e-03  -1.2897594e-02   5.7804521e-02  -8.2164347e-03   3.3942783e-02   1.3515932e-01  -6.1929445e-02   3.7853761e-02   1.5776884e-02  -9.9702973e-02
  -2.9039635e-03  -5.3217408e-03  -7.4375033e-03  -6.6568587e-03   2.6706098e-03   7.4494096e-03   4.9032628e-03  -2.5033697e-02   1.8987894e-02   3.9347598e-02   1.3216739e-02  -2.6333175e-03  -1.0883899e-02   1.3016707e-02  -2.1914403e-02   4.6019843e-02  -5.2364117e-02  -1.8258894e-02   8.3433695e-02   9.8235841e-03   3.4611924e-02  -5.2678690e-02  -6.5716881e-02
   7.4225132e-03  -8.5732011e-04   1.5304881e-02  -1.7944158e-02   1.6704045e-02  -1.6053344e-02   3.6794101e-03  -4.2262437e-02  -4.3308619e-02  -3.3007334e-02  -1.2042042e-01  -2.0665980e-02   4.2656740e-02  -3.4569773e-02  -1.3878449e-02   1.1422514e-01  -3.4606450e-02   1.3384391e-02  -1.3027056e-01   4.5748856e-02   7.0913028e-02   9.6439539e-02  -1.0024449e-01
  -6.3696030e-03   6.0142136e-04  -3.3306033e-03  -2.5971462e-02   2.8828804e-03  -2.2500111e-02  -1.9108928e-02   4.2384807e-03   1.2690279e-02  -2.3998084e-02   2.1335552e-02  -4.2010410e-02  -3.2182122e-02   6.1662425e-02   8.0676797e-02   1.0515566e-01  -1.6157864e-01   5.3303197e-02  -6.2705208e-02   4.6211260e-02  -4.7566117e-02  -1.1004723e-01  -1.6027596e-01
  -2.9311197e-03   3.9595180e-03  -5.6442911e-03  -3.2233319e-02   3.2518610e-03  -1.4722008e-02   1.6858506e-02   3.0364366e-02   4.7568732e-02  -1.4978473e-02  -1.3835663e-02  -2.2536819e-02  -5.6736516e-04   7.3517971e-03   7.1944984e-02   2.1204757e-01   1.4073103e-01   9.3025945e-02  -1.9001533e-01   5.1715735e-03  -1.9171358e-01   3.0659459e-02  -1.2335167e-01
   1.7736410e-02  -2.2648669e-03   3.3821646e-02   3.3704747e-02  -5.1287862e-03  -1.7307132e-02   1.1617995e-02   1.2901056e-02  -7.6505502e-02   1.5297886e-04   1.4957761e-01  -3.6920400e-02   1.3807749e-01   1.3585724e-01  -2.9138460e-01  -3.1262748e-01   2.7234761e-01   3.4394728e-02   6.0687390e-02   1.7125163e-01  -4.6167627e-02   2.6900620e-01  -6.4601481e-02
  -1.8935819e-03  -3.5087283e-05   2.5251766e-03  -5.5712316e-03  -1.6641334e-02   4.0411820e-03  -3.2161701e-02   1.0451241e-02   1.0316785e-02  -6.7183966e-02   1.6913956e-02  -2.3866924e-02  -3.3662734e-02  -3.4099618e-02  -6.0502290e-02   1.5511449e-01   6.5903296e-02  -4.6716780e-04  -1.3105437e-02  -1.0753700e-01  -1.3967811e-01   5.8755977e-02   1.8672037e-01
  -2.7514474e-04  -1.7137302e-02  -9.7517184e-04  -2.4516984e-02  -7.3073658e-03  -3.1475189e-02  -4.7699208e-02   3.9985022e-02  -4.0924305e-02  -7.2866299e-02   1.0563261e-02  -3.4548406e-02   7.8256979e-03  -5.0990951e-02   3.7650262e-02  -1.6846748e-01  -1.0718651e-01   2.1922665e-02  -1.0376324e-02   7.5582354e-02  -1.2375769e-02   7.7266038e-02   1.9607358e-02
  -5.9412664e-04  -8.6720740e-03  -3.3811481e-03  -2.0149184e-02  -2.4799874e-03  -2.3150991e-03  -2.7493270e-02   2.0583702e-02  -3.5292932e-02  -6.0227597e-02  -2.9662036e-02  -2.2102606e-02  -2.6784266e-04  -1.5901231e-02  -1.3809762e-03  -5.0098716e-02  -1.1262186e-01   4.7757776e-02  -3.9924795e-02   1.3453987e-01   1.3369197e-02   8.7518714e-02   6.3394161e-03
   5.1585662e-04   2.1704517e-03   1.3779388e-02  -1.0499239e-02   1.3890020e-02   1.7750618e-02  -4.6789063e-03  -1.4553907e-03  -6.5744333e-03  -2.7778193e-03  -1.7957023e-02  -4.1409794e-02  -2.1717560e-02   4.4216499e-02  -1.5518423e-02   5.5854003e-02   9.1967723e-02   3.5395400e-02  -1.5701790e-01   3.4426269e-02   1.1099559e-01   8.4886611e-03   3.9929617e-02
  -1.9531663e-04   8.2541010e-04  -7.5408698e-04   2.1956376e-02   1.0306325e-02  -6.2919852e-03  -1.7330016e-02   1.6665381e-03  -3.2867629e-02  -1.5462837e-02   3.1884187e-02   2.0838754e-02   2.0378610e-02  -1.2321292e-02  -2.4050114e-02   6.0109895e-02  -2.6197926e-02   2.1083846e-02   1.0547208e-01  -3.3006069e-02   6.8583517e-03   3.5085569e-02  -9.3248660e-02
  -2.4575936e-03  -4.5319847e-03  -8.5269823e-03  -2.1554815e-03   1.5759369e-03   7.3831709e-04   8.5700153e-03  -3.1040899e-02   1.1623037e-02   1.6794640e-02   8.9060768e-03  -5.5965987e-04  -2.2485227e-03   1.2961505e-02  -1.2202971e-02   5.0492077e-02  -3.6051418e-02  -2.9533792e-02   4.5397493e-02   4.6335343e-02   2.1097499e-02  -6.2219727e-02  -7.4248356e-02
   7.7521136e-03   1.5739411e-04   1.7576114e-02  -1.1359046e-02   2.2768505e-02  -1.6742827e-02   1.8851037e-02  -3.5542780e-02  -5.9319648e-02  -1.7271894e-02  -1.1460842e-01  -1.6766575e-02   2.9732694e-02  -5.9447611e-02  -4.5578651e-02   9.6301916e-02  -1.0056072e-01   1.7803231e-03  -1.1013971e-01   9.1308111e-02   6.9706775e-02   8.0398118e-02  -7.3377429e-02
  -6.3094116e-03   8.3201721e-04  -6.8472681e-03  -2.6915476e-02  -4.5908357e-03  -1.9571611e-02  -2.6512109e-02   4.3230885e-03   2.7135504e-02  -3.6394199e-02   5.0794957e-03  -4.2263890e-02  -1.2095998e-02   5.7239134e-02   7.6767145e-02   6.3726295e-02  -1.5258959e-01   3.4139781e-02  -4.4773993e-02   1.3849933e-02  -1.8158341e-02  -9.6709297e-02  -1.4589259e-01
  -1.9655116e-03   8.2634752e-03  -7.8045357e-03  -3.9671972e-02   4.4431001e-03  -1.6378859e-02   1.2269899e-02   2.5808334e-02   5.0565702e-02  -1.1728982e-02  -3.5475144e-02   9.9749738e-03  -7.1734205e-04   2.2243048e-02   7.0475771e-02   1.4470616e-01   1.5315027e-01   1.3329994e-01  -1.6818649e-01  -3.2283874e-02  -1.4097387e-01   1.0739565e-02  -9.5144630e-02
   1.9645700e-02  -2.7964008e-03   3.6327249e-02   3.0863170e-02  -6.2506966e-03  -1.8215336e-02   1.1277370e-02   1.5679494e-02  -7.7900488e-02   2.9812661e-03   1.3097693e-01  -3.7906994e-02   1.3232694e-01   1.3157215e-01  -2.7839825e-01  -3.2227605e-01   2.2330088e-01   2.1820585e-02   4.5810416e-02   1.6872364e-01  -7.1022147e-02   2.7229506e-01  -4.0847418e-02
  -1.5350818e-03   6.5565970e-04   2.1039584e-03  -5.9257319e-03  -1.5896664e-02   1.0444063e-02  -2.6450231e-02   1.2874147e-02   1.3190043e-02  -5.1262888e-02   1.3554585e-02  -3.7405428e-02  -2.3546565e-02  -2.0527617e-02  -7.2758798e-02   1.5935438e-01   5.4316536e-02  -2.5416919e-02  -2.9137213e-02  -9.1664435e-02  -1.2052521e-01   3.9386889e-02   2.0033604e-01
  -4.8887323e-05  -1.7709140e-02   3.6956055e-04  -2.4889844e-02  -2.7470951e-03  -3.2957449e-02  -4.8912928e-02   4.2224246e-02  -3.5650968e-02  -7.5618389e-02   8.4515765e-03  -4.5423517e-02   1.6256908e-02  -4.9075444e-02   2.3622121e-02  -1.6675023e-01  -1.0388238e-01   1.3510410e-02  -3.8885819e-02   9.3840262e-02  -7.0767586e-04   7.2065343e-02   7.0008928e-03
  -2.1721294e-04  -7.8169844e-03  -4.7296647e-03  -1.8344106e-02  -1.3156089e-04  -5.9671590e-03  -2.7917374e-02   2.4192148e-02  -3.7232788e-02  -5.9816151e-02  -4.1027447e-02   1.1514261e-03   7.9827300e-03  -1.1039890e-02   1.4895741e-02  -2.4675547e-02  -1.1479155e-01   3.7360318e-02  -6.5004530e-02   1.1924271e-01   2.3412859e-02   1.0824762e-01  -5.4015303e-02
   1.7424916e-04   5.9283816e-04   1.0265133e-02  -8.5668683e-03   1.8448142e-02   2.0456724e-02  -5.1441030e-03  -9.7401693e-03   1.6216316e-03  -4.7981630e-05  -1.0914128e-02  -4.3844506e-02  -3.0054713e-02   3.8591742e-02  -1.9061266e-02   3.9583172e-02   7.9718444e-02   9.4849045e-03  -1.3357247e-01   5.1991848e-02   6.9291025e-02  -2.5500707e-02   4.5690392e-02
   2.0723574e-04   8.0685303e-04  -1.2698087e-03   2.6578375e-02   1.1475096e-02  -4.5293256e-03  -1.1320390e-02  -6.7817608e-04  -2.5952829e-02  -2.7472392e-03   3.2424210e-02   1.5412695e-02   4.1532132e-02  -1.8424700e-02  -2.9287294e-02   5.5554038e-02  -3.6137326e-02   1.2200167e-02   7.6727696e-02  -1.2390789e-02  -2.0121187e-02   5.3738115e-02  -7.6760681e-02
  -2.0530008e-03  -3.5457548e-03  -8.5893354e-03   2.7584579e-04   8.1111948e-04  -3.8910794e-03   1.1500099e-02  -3.3280796e-02   5.7130761e-03   4.1832584e-03   5.7645375e-03  -2.5537118e-03   3.5145353e-03   1.6022007e-02  -5.5369581e-03   5.5797690e-02  -2.0990948e-02  -3.5568740e-02   1.5700513e-02   6.6081726e-02   1.6557973e-02  -5.9635539e-02  -7.7305128e-02
   7.6792342e-03   1.1897240e-03   1.9008590e-02  -5.1007369e-03   2.7009524e-02  -1.6320369e-02   3.1340107e-02  -2.5270256e-02  -7.5249934e-02  -1.7979054e-03  -1.0286187e-01  -1.0289868e-02   1.6373735e-02  -7.9101203e-02  -6.7350370e-02   6.8751447e-02  -1.5217712e-01  -1.3834689e-02  -8.5101303e-02   1.2782885e-01   6.5752692e-02   5.8277388e-02  -4.3173971e-02
  -5.8947914e-03   1.0888689e-03  -1.0592682e-02  -2.6409616e-02  -1.0648798e-02  -1.5347620e-02  -3.0315498e-02   6.1716152e-03   3.8048324e-02  -4.8156836e-02  -8.7659379e-03  -4.1266867e-02   8.2987052e-03   4.9424271e-02   6.8480444e-02   1.6417200e-02  -1.4050285e-01   1.4192502e-02  -2.7238644e-02  -1.6984789e-02   8.9989471e-03  -8.4162173e-02  -1.2163817e-01
  -1.0466041e-03   1.2032955e-02  -1.0042962e-02  -4.4429025e-02   5.2603836e-03  -1.7465674e-02   6.3071370e-03   2.2327040e-02   5.2559715e-02  -8.2835854e-03  -5.1919615e-02   3.5370222e-02  -5.5640496e-04   3.1221318e-02   6.5610931e-02   8.0465749e-02   1.5706049e-01   1.6457785e-01  -1.3701419e-01  -6.2291009e-02  -8.5215588e-02  -8.9145060e-03  -6.7381960e-02
   2.0654157e-02  -2.9051452e-03   3.8459439e-02   2.8294230e-02  -5.7941839e-03  -2.0225276e-02   1.0116185e-02   1.8346429e-02  -7.8099896e-02   1.1549034e-02   1.0688781e-01  -3.5708848e-02   1.2582881e-01   1.2437536e-01  -2.5629970e-01  -3.1980967e-01   1.7122434e-01   1.0529453e-02   2.9799976e-02   1.6049416e-01  -8.8212442e-02   2.5048769e-01  -2.1684091e-02
  -1.1741729e-03   1.1657955e-03   1.6232484e-03  -5.4602321e-03  -1.4699592e-02   1.5779623e-02  -1.9165736e-02   1.5212370e-02   1.6391181e-02  -3.2452051e-02   5.6041569e-03  -4.5107640e-02  -1.1120944e-02  -5.8726208e-03  -7.9601869e-02   1.5768933e-01   3.9665339e-02  -5.3785083e-02  -4.5367206e-02  -7.5707590e-02  -9.8548751e-02   1.2103636e-02   2.1019089e-01
   2.7541986e-04  -1.7846715e-02   2.0095688e-03  -2.4561344e-02   1.3841706e-03  -3.2384642e-02  -4.8540361e-02   4.2410162e-02  -3.1277916e-02  -7.6969275e-02   5.7560161e-03  -5.2833336e-02   2.5124645e-02  -4.3004786e-02   4.6642427e-03  -1.6170290e-01  -9.2030209e-02   9.2300351e-03  -7.0962578e-02   1.1214303e-01   1.2710418e-02   7.3523296e-02  -3.9518576e-03
   4.8326173e-05  -7.5809953e-03  -5.4029773e-03  -1.7178765e-02   1.1155068e-03  -1.0500699e-02  -2.8935440e-02   2.7891202e-02  -4.0333653e-02  -6.4691521e-02  -5.0898667e-02   2.3681298e-02   2.0823220e-02  -6.0604468e-03   2.9949163e-02   5.2657115e-03  -1.0871718e-01   3.1397711e-02  -8.9701654e-02   1.0027038e-01   2.2963951e-02   1.2137833e-01  -1.0635472e-01
  -1.7611893e-04  -1.3867866e-03   5.1802476e-03  -5.8144389e-03   2.3677266e-02   2.3950973e-02  -4.7258320e-03  -1.8166119e-02   1.3063299e-02   6.8123507e-03  -7.6777527e-04  -4.7921816e-02  -4.0235353e-02   2.7375308e-02  -2.7038826e-02   2.1358015e-02   5.8500826e-02  -2.7918885e-02  -1.0083578e-01   7.2789385e-02   2.1768654e-02  -6.6595864e-02   4.5389572e-02
   4.2577577e-04   3.2739817e-04  -1.3804331e-03   2.7155335e-02   1.1064084e-02  -3.9885645e-03  -5.5809037e-03  -4.0618678e-03  -1.5175295e-02   7.3445140e-03   3.1506588e-02   1.1811425e-02   5.1430883e-02  -2.6686936e-02  -2.6318553e-02   4.5532279e-02  -3.2615898e-02   8.8880331e-03   5.2783619e-02  -3.9824122e-03  -3.9298818e-02   6.8192683e-02  -5.2063169e-02
  -1.7372328e-03  -2.4826045e-03  -7.5931713e-03   5.4771788e-04   6.4706691e-04  -5.8214921e-03   1.3634500e-02  -3.1118488e-02   2.5042579e-03   4.0875248e-03   4.9253673e-03  -9.1027361e-03   5.9788604e-03   2.2284139e-02  -3.0234702e-03   6.1784262e-02  -8.6228747e-03  -3.7384253e-02  -2.2259718e-03   6.5917066e-02   1.7491345e-02  -4.6197171e-02  -7.3212961e-02
   7.2007126e-03   2.1947884e-03   1.9642466e-02   3.1032360e-04   2.9166712e-02  -1.5174548e-02   4.0546787e-02  -1.1886662e-02  -9.0252809e-02   1.2299200e-02  -8.4880404e-02  -2.1238385e-03   2.1809834e-03  -9.2082894e-02  -7.8943584e-02   3.4911079e-02  -1.8749800e-01  -3.3378960e-02  -5.6155245e-02   1.5569261e-01   5.8760948e-02   3.3515550e-02  -1.3686466e-02
  -5.2167839e-03   1.3855840e-03  -1.4279130e-02  -2.4795872e-02  -1.4995910e-02  -1.0918349e-02  -3.1153539e-02   9.7319929e-03   4.4844238e-02  -5.8234904e-02  -2.0085609e-02  -4.0347830e-02   2.7817005e-02   4.0015668e-02   5.5525050e-02  -3.0145188e-02  -1.2533842e-01  -4.3162082e-03  -1.2809059e-02  -4.5791434e-02   3.1536818e-02  -7.1115223e-02  -9.3490560e-02
  -1.4575549e-04   1.5040842e-02  -1.2130859e-02  -4.6485686e-02   5.6758639e-03  -1.7903424e-02  -4.8054059e-04   1.9548166e-02   5.3141860e-02  -4.9337070e-03  -6.2048160e-02   5.1849710e-02   4.1997938e-04   3.3611679e-02   5.7510592e-02   2.2627546e-02   1.5418907e-01   1.8477232e-01  -1.0051540e-01  -8.4131597e-02  -2.9174658e-02  -2.6073306e-02  -4.1826621e-02
   2.0758494e-02  -2.6940768e-03   4.0012600e-02   2.6074342e-02  -4.0050989e-03  -2.2740925e-02   8.3435116e-03   2.0253845e-02  -7.6783789e-02   2.4743959e-02   7.9912620e-02  -3.1310716e-02   1.1981338e-01   1.1615352e-01  -2.2804807e-01  -3.0547279e-01   1.2097004e-01   1.3602121e-03   1.3942780e-02   1.4735074e-01  -1.0025970e-01   2.0871975e-01  -9.4482622e-03
  -8.1929141e-04   1.4039719e-03   1.0352703e-03  -4.3421016e-03  -1.3022685e-02   1.9846661e-02  -1.1218261e-02   1.7130364e-02   1.9565936e-02  -1.3956019e-02  -5.5578087e-03  -4.6077996e-02   6.9234652e-04   7.2118780e-03  -8.0128750e-02   1.5085199e-01   2.3297811e-02  -8.2872271e-02  -5.9012820e-02  -6.1470030e-02  -7.4693438e-02  -2.2273444e-02   2.1610153e-01
   6.8686147e-04  -1.7545741e-02   3.7052317e-03  -2.3652767e-02   4.5810586e-03  -2.9917784e-02  -4.6566658e-02   4.0648188e-02  -2.8200958e-02  -7.7389140e-02   1.7272864e-03  -5.5712785e-02   3.3922580e-02  -3.3593245e-02  -1.7524918e-02  -1.5465401e-01  -7.3024967e-02   1.0139118e-02  -1.0316347e-01   1.2827099e-01   2.8038482e-02   8.0211047e-02  -1.1990219e-02
   2.2033684e-04  -8.0122235e-03  -5.4357862e-03  -1.6597135e-02   1.1068102e-03  -1.5848187e-02  -3.0360139e-02   3.1399443e-02  -4.4376282e-02  -7.4761303e-02  -5.7986969e-02   4.3316176e-02   3.7424823e-02  -1.4102800e-03   4.1724918e-02   3.6588725e-02  -9.5103504e-02   2.9051931e-02  -1.1137373e-01   7.9847140e-02   1.1468895e-02   1.2531152e-01  -1.4596832e-01
  -4.5895701e-04  -3.3349230e-03  -5.3569012e-04  -2.4989713e-03   2.8524057e-02   2.7412428e-02  -3.3223497e-03  -2.4784056e-02   2.5112464e-02   1.6415823e-02   1.0797551e-02  -5.2770562e-02  -4.9838001e-02   1.3670695e-02  -3.7616273e-02   7.5221116e-03   3.3333325e-02  -7.0133031e-02  -6.7433720e-02   9.2702169e-02  -2.4454703e-02  -1.0716022e-01   3.7684415e-02
   4.3872270e-04  -5.0795781e-04  -1.0641660e-03   2.3271019e-02   9.0000799e-03  -4.9851383e-03  -1.1185671e-03  -7.9576947e-03  -1.8892149e-03   1.2896801e-02   2.9629448e-02   1.0183319e-02   4.7699318e-02  -3.5880506e-02  -1.5227081e-02   3.2084523e-02  -1.4028114e-02   1.1139116e-02   3.5846829e-02  -9.0573108e-03  -4.8656262e-02   7.7108021e-02  -2.2095918e-02
  -1.5492805e-03  -1.4828971e-03  -5.6480625e-03  -1.2783710e-03   1.1772185e-03  -5.0394446e-03   1.4947391e-02  -2.4523918e-02   2.7584077e-03   1.6621712e-02   7.2389088e-03  -1.9843340e-02   4.3557018e-03   3.1052828e-02  -4.5975971e-03   6.8380847e-02   1.0683567e-03  -3.6401999e-02  -6.7261155e-03   4.4974110e-02   1.9310826e-02  -2.5416066e-02  -6.1355599e-02
   6.3256761e-03   3.1268081e-03   1.9579066e-02   4.4905305e-03   2.9031201e-02  -1.3614972e-02   4.6108507e-02   3.6444446e-03  -1.0306472e-01   2.3947707e-02  -6.0763579e-02   6.9719546e-03  -1.3250514e-02  -9.7640695e-02  -8.0844241e-02  -1.4212855e-03  -2.0559610e-01  -5.6286110e-02  -2.3580579e-02   1.7573768e-01   4.9250071e-02   9.7697660e-03   1.2105663e-02
  -4.3784810e-03   1.7322825e-03  -1.7599295e-02  -2.2351057e-02  -1.7513164e-02  -7.2699073e-03  -2.9768817e-02   1.4387408e-02   4.7739434e-02  -6.5496709e-02  -2.9062118e-02  -4.0559085e-02   4.5318041e-02   3.0468480e-02   3.7382814e-02  -6.9403608e-02  -1.0723948e-01  -1.9003780e-02  -2.9486344e-03  -7.2460024e-02   4.8271011e-02  -5.6085729e-02  -6.5841675e-02
   7.7328763e-04   1.7110448e-02  -1.3841051e-02  -4.5977557e-02   5.6127739e-03  -1.7587294e-02  -7.5102302e-03   1.6904474e-02   5.1951362e-02  -2.0238792e-03  -6.5169262e-02   5.8117793e-02   2.7208754e-03   2.9113829e-02   4.6213001e-02  -2.5820543e-02   1.4642553e-01   1.9248002e-01  -6.2594217e-02  -9.7503688e-02   2.2828667e-02  -3.8538268e-02  -1.9774896e-02
   2.0000080e-02  -2.2857468e-03   4.0757978e-02   2.4189640e-02  -1.3141699e-03  -2.4974984e-02   6.1751299e-03   2.0701215e-02  -7.3591761e-02   4.0883559e-02   5.2683937e-02  -2.5863171e-02   1.1536728e-01   1.0874619e-01  -1.9689895e-01  -2.7961299e-01   7.7127876e-02  -4.7542629e-03  -5.5112548e-04   1.3058006e-01  -1.0977250e-01   1.5307727e-01  -5.8559530e-03
  -4.8069381e-04   1.3162322e-03   3.5663590e-04  -2.8650558e-03  -1.0965761e-02   2.2471448e-02  -3.5976283e-03   1.8367420e-02   2.2415018e-02   1.1491503e-03  -1.8397952e-02  -4.0054412e-02   9.0847015e-03   1.6080775e-02  -7.4338940e-02   1.4018773e-01   6.6394458e-03  -1.0932697e-01  -6.7496051e-02  -5.0887130e-02  -4.9617027e-02  -6.1776740e-02   2.1830942e-01
   1.1635393e-03  -1.6831187e-02   5.1864181e-03  -2.2277854e-02   6.4219841e-03  -2.5742930e-02  -4.3094746e-02   3.7034704e-02  -2.6552332e-02  -7.7390544e-02  -4.1703031e-03  -5.3284955e-02   4.1973196e-02  -2.2122528e-02  -4.1566029e-02  -1.4697774e-01  -4.9106940e-02   1.6715434e-02  -1.3120269e-01   1.4029619e-01   4.4775222e-02   9.0037196e-02  -1.5791442e-02
   3.2714706e-04  -9.0344178e-03  -4.9675515e-03  -1.6357784e-02  -1.1423106e-04  -2.1751482e-02  -3.1845231e-02   3.4388032e-02  -4.8898706e-02  -8.8850275e-02  -6.1505555e-02   5.8460568e-02   5.6403669e-02   2.7918966e-03   4.8745336e-02   6.5767844e-02  -7.5535188e-02   2.8674344e-02  -1.2745888e-01   6.0088148e-02  -9.6113408e-03   1.1967635e-01  -1.7013275e-01
  -6.1928122e-04  -4.8604465e-03  -5.8041830e-03   8.9786519e-04   3.2031378e-02   3.0022321e-02  -1.2071324e-03  -2.8197876e-02   3.4822398e-02   2.6711060e-02   2.1033305e-02  -5.6546312e-02  -5.6457646e-02   1.4508298e-03  -4.7725527e-02   2.6570935e-03   9.5637511e-03  -1.0904043e-01  -4.1022137e-02   1.0703120e-01  -6.2338163e-02  -1.3958229e-01   2.1869358e-02
   2.6787373e-04  -1.4946257e-03  -3.3523143e-04   1.5546187e-02   5.6564058e-03  -7.2098091e-03   1.4476492e-03  -1.1408727e-02   1.2216399e-02   1.4381869e-02   2.7481453e-02   9.7429276e-03   3.1681434e-02  -4.3993867e-02   1.3249010e-03   1.7940553e-02   1.6848449e-02   1.7051845e-02   2.6998758e-02  -2.6436854e-02  -4.8286016e-02   8.0688119e-02   9.4775179e-03
  -1.5106288e-03  -6.8938495e-04  -2.9880769e-03  -5.0528344e-03   2.2862979e-03  -2.1214484e-03   1.5438626e-02  -1.4147442e-02   6.6741612e-03   3.9504247e-02   1.3101967e-02  -3.3641518e-02  -2.2956176e-03   4.0948221e-02  -9.0946460e-03   7.5349560e-02   9.3923383e-03  -3.3879058e-02   1.7187852e-03   5.0886685e-03   1.7697107e-02  -1.9307016e-03  -4.2478622e-02
   5.0744694e-03   3.9238585e-03   1.8953919e-02   7.2073907e-03   2.6507447e-02  -1.1763261e-02   4.7937979e-02   1.9908167e-02  -1.1213362e-01   3.2303657e-02  -3.1085543e-02   1.6536107e-02  -3.0197431e-02  -9.5765737e-02  -7.3730438e-02  -3.6573116e-02  -2.0663711e-01  -8.1482497e-02   1.2915386e-02   1.8902491e-01   3.8247024e-02  -9.6397340e-03   3.2494386e-02
  -3.4879845e-03   2.1097750e-03  -2.0271560e-02  -1.9266609e-02  -1.8199218e-02  -5.0774056e-03  -2.6868090e-02   1.8998375e-02   4.7703391e-02  -6.8722799e-02  -3.6134023e-02  -4.2392901e-02   5.9816532e-02   2.1768588e-02   1.3970047e-02  -9.5828003e-02  -8.6578628e-02  -2.7530021e-02   2.1577315e-03  -9.7257118e-02   5.8938663e-02  -3.7946177e-02  -4.1082428e-02
   1.7450264e-03   1.8120351e-02  -1.4969696e-02  -4.3167667e-02   4.9608901e-03  -1.6375923e-02  -1.4202798e-02   1.3716160e-02   4.8743827e-02   8.0148530e-05  -6.1069202e-02   5.3505373e-02   6.8134754e-03   1.7785994e-02   3.1754911e-02  -6.2417822e-02   1.3559699e-01   1.8710822e-01  -2.6726077e-02  -1.0247186e-01   6.7158966e-02  -4.4414514e-02  -1.9980660e-03
   1.8457518e-02  -1.8088918e-03   4.0480775e-02   2.2543276e-02   1.7308113e-03  -2.6047514e-02   3.8267225e-03   1.9009024e-02  -6.8193896e-02   5.7951647e-02   2.7655255e-02  -2.0506794e-02   1.1334664e-01   1.0372030e-01  -1.6600253e-01  -2.4276843e-01   4.3705045e-02  -6.8063381e-03  -1.2686998e-02   1.1185643e-01  -1.1919809e-01   9.0069439e-02  -1.1856344e-02
  -1.7016193e-04   8.9312777e-04  -3.4408771e-04  -1.3559159e-03  -8.7237157e-03   2.3561921e-02   2.7417627e-03   1.8758255e-02   2.4755437e-02   1.0341292e-02  -3.1365866e-02  -2.7449818e-02   1.1847218e-02   1.8444677e-02  -6.3240461e-02   1.2742384e-01  -9.0518877e-03  -1.2972120e-01  -6.8613308e-02  -4.5709940e-02  -2.3857251e-02  -1.0346777e-01   2.1747881e-01
   1.6747064e-03  -1.5758486e-02   6.1631981e-03  -2.0511733e-02   6.6238493e-03  -2.0053739e-02  -3.8315281e-02   3.1704906e-02  -2.6204707e-02  -7.7407453e-02  -1.2112437e-02  -4.5186708e-02   4.8499584e-02  -1.0233217e-02  -6.6424920e-02  -1.3987444e-01  -2.3135912e-02   2.8648195e-02  -1.5058930e-01   1.4682565e-01   6.1734795e-02   1.0037983e-01  -1.4218801e-02
   4.0063244e-04  -1.0445167e-02  -4.1827377e-03  -1.6115177e-02  -2.3121139e-03  -2.7734117e-02  -3.2950236e-02   3.6452718e-02  -5.3248676e-02  -1.0483823e-01  -6.1276858e-02   6.8133403e-02   7.5825554e-02   6.5945468e-03   5.0275428e-02   8.9085674e-02  -5.2387727e-02   2.8584403e-02  -1.3573390e-01   4.2731217e-02  -3.6724785e-02   1.0552807e-01  -1.7788894e-01
  -6.3438993e-04  -5.6721707e-03  -9.5743124e-03   3.7173695e-03   3.3467880e-02   3.1164013e-02   1.0625137e-03  -2.7932743e-02   3.9661641e-02   3.5391837e-02   2.6512854e-02  -5.6664223e-02  -5.8176506e-02  -5.3984046e-03  -5.3448073e-02   8.6438252e-03  -7.8950639e-03  -1.3624288e-01  -2.6874684e-02   1.1118880e-01  -8.5473838e-02  -1.5738297e-01  -1.2835914e-03
  -3.7534031e-05  -2.3757651e-03   7.4469665e-04   5.6040874e-03   1.8135355e-03  -9.7766710e-03   1.8825706e-03  -1.3108506e-02   2.5053074e-02   1.4167317e-02   2.5881179e-02   9.1150291e-03   7.9297923e-03  -4.8582632e-02   1.8635105e-02   6.4438697e-03   5.3234528e-02   2.3193591e-02   2.6713172e-02  -5.3086515e-02  -4.0384354e-02   7.9692720e-02   3.8667189e-02
  -1.6180531e-03  -2.2565662e-04   5.0368012e-05  -1.0542893e-02   3.6498863e-03   1.8815180e-03   1.5148792e-02  -1.3279623e-03   1.3900930e-02   6.8487084e-02   2.2319618e-02  -4.8794008e-02  -1.4612251e-02   5.0182568e-02  -1.4654668e-02   8.2036384e-02   1.8461153e-02  -3.0614101e-02   2.0442638e-02  -4.8914984e-02   9.8724142e-03   1.9742501e-02  -1.8739894e-02
   3.4781261e-03   4.4962125e-03   1.7906013e-02   8.3779097e-03   2.1668891e-02  -9.5117836e-03   4.6229701e-02   3.5226215e-02  -1.1587446e-01   3.6887446e-02   3.0807686e-03   2.6460626e-02  -4.8648901e-02  -8.7063261e-02  -5.8029579e-02  -6.7450735e-02  -1.9185790e-01  -1.0742915e-01   5.3782091e-02   1.9663312e-01   2.6911810e-02  -2.2155668e-02   4.6893497e-02
  -2.6521446e-03   2.4472953e-03  -2.2088351e-02  -1.5656057e-02  -1.7114485e-02  -4.5763452e-03  -2.3026767e-02   2.2105419e-02   4.6208711e-02  -6.6664537e-02  -4.1911546e-02  -4.5633916e-02   7.0633448e-02   1.4521753e-02  -1.3753395e-02  -1.0567656e-01  -6.3993876e-02  -2.7840785e-02   3.2590174e-03  -1.2074329e-01   6.3804856e-02  -1.6330230e-02  -1.9743396e-02
   2.7936162e-03   1.8006926e-02  -1.5360316e-02  -3.8420160e-02   3.6047347e-03  -1.4095514e-02  -2.0019178e-02   9.3063240e-03   4.3428670e-02   1.0332770e-03  -5.0035974e-02   3.8076929e-02   1.3083438e-02   5.8420922e-05   1.4336281e-02  -8.5453323e-02   1.2328428e-01   1.6894705e-01   4.2415619e-03  -9.9426307e-02   1.0104269e-01  -4.2373235e-02   1.1222342e-02
   1.6240939e-02  -1.3858822e-03   3.9017124e-02   2.0974138e-02   4.5451169e-03  -2.5103927e-02   1.5074961e-03   1.4613512e-02  -6.0378424e-02   7.3854809e-02   6.9139258e-03  -1.6212180e-02   1.1430536e-01   1.0219620e-01  -1.3801149e-01  -1.9577826e-01   2.3823616e-02  -3.7925176e-03  -2.1831814e-02   9.3073316e-02  -1.3062836e-01   2.6143637e-02  -2.7571096e-02
   9.8301551e-05   1.6777488e-04  -9.7321796e-04  -7.8104272e-05  -6.5307248e-03   2.3166730e-02   6.9840482e-03   1.8261095e-02   2.6515868e-02   1.1988211e-02  -4.3004087e-02  -9.3199818e-03   7.7489148e-03   1.2715353e-02  -4.8777734e-02   1.1439208e-01  -2.2915359e-02  -1.4117354e-01  -6.0618851e-02  -4.7216657e-02   1.9328910e-03  -1.4387074e-01   2.1457065e-01
   2.1835984e-03  -1.4412879e-02   6.3417852e-03  -1.8369249e-02   5.0840777e-03  -1.3068432e-02  -3.2488593e-02   2.4910813e-02  -2.6842887e-02  -7.7715239e-02  -2.1811210e-02  -3.1597383e-02   5.2741617e-02   2.8360384e-04  -9.1402414e-02  -1.3411230e-01   1.7153211e-03   4.4702877e-02  -1.5739596e-01   1.4719793e-01   7.7111554e-02   1.0829916e-01  -6.6741888e-03
   4.7004705e-04  -1.1929371e-02  -3.2492102e-03  -1.5516486e-02  -5.0874596e-03  -3.3115838e-02  -3.3222147e-02   3.7102090e-02  -5.6646320e-02  -1.1994047e-01  -5.7744868e-02   7.1948936e-02   9.3266192e-02   9.9830682e-03   4.6369629e-02   1.0292374e-01  -2.8624322e-02   2.7804642e-02  -1.3455863e-01   2.8924616e-02  -6.4443205e-02   8.5375423e-02  -1.6965711e-01
  -5.1642722e-04  -5.6202728e-03  -1.0989559e-02   5.2150481e-03   3.2486312e-02   3.0608367e-02   2.8110949e-03  -2.4528613e-02   3.8103759e-02   4.0495108e-02   2.3863300e-02  -5.0335836e-02  -5.3971560e-02  -4.1282528e-03  -5.0413725e-02   2.4259700e-02  -1.5457859e-02  -1.4427698e-01  -2.7211950e-02   1.0146567e-01  -8.9043365e-02  -1.5630543e-01  -2.9003884e-02
  -4.1412836e-04  -2.8956884e-03   2.0762368e-03  -4.2134157e-03  -1.4683234e-03  -1.1449593e-02   2.7180994e-04  -1.1616861e-02   3.4185644e-02   1.5525075e-02   2.5679123e-02   6.8210707e-03  -1.7029858e-02  -4.7463926e-02   3.1094598e-02   1.2973635e-03   8.5626321e-02   2.5647357e-02   3.5069216e-02  -8.4918385e-02  -2.8832341e-02   7.4602935e-02   6.1570469e-02
  -1.8404631e-03  -1.7341707e-04   3.0600179e-03  -1.7378074e-02   4.7841184e-03   5.6625284e-03   1.4187172e-02   1.1996712e-02   2.3607700e-02   9.8098549e-02   3.4042768e-02  -6.3304929e-02  -3.2363510e-02   5.6931016e-02  -1.9330162e-02   8.7233016e-02   3.0392496e-02  -2.6915527e-02   4.4957420e-02  -1.0926335e-01  -4.4854483e-03   3.6269993e-02   6.5280465e-03
   1.5791404e-03   4.7260561e-03   1.6551919e-02   8.0570299e-03   1.4786861e-02  -6.5690837e-03   4.1430552e-02   4.7909339e-02  -1.1297762e-01   3.7630982e-02   4.0198766e-02   3.6896650e-02  -6.8177701e-02  -7.2522030e-02  -3.3781246e-02  -9.1739708e-02  -1.6345170e-01  -1.3223163e-01   9.9098784e-02   1.9952967e-01   1.6222986e-02  -2.6205985e-02   5.5445238e-02
  -1.9702524e-03   2.6155635e-03  -2.2954138e-02  -1.1582519e-02  -1.4354862e-02  -5.5486840e-03  -1.8655714e-02   2.2234165e-02   4.4860126e-02  -5.8212837e-02  -4.7041940e-02  -4.9412583e-02   7.7521010e-02   9.1765287e-03  -4.3521945e-02  -9.7369273e-02  -4.0337683e-02  -1.8443716e-02   1.4902660e-03  -1.4358214e-01   6.3319250e-02   8.2168780e-03  -1.0769170e-03
   3.9258150e-03   1.6766663e-02  -1.4927244e-02  -3.2174773e-02   1.4565233e-03  -1.0566368e-02  -2.4496873e-02   3.1399337e-03   3.6080976e-02   5.4945151e-04  -3.2852360e-02   1.2697238e-02   2.1796604e-02  -2.3225193e-02  -5.5389805e-03  -9.4144977e-02   1.1069646e-01   1.3917467e-01   2.8179990e-02  -8.9042789e-02   1.2267299e-01  -3.1857468e-02   1.9977418e-02
   1.3488179e-02  -1.1204035e-03   3.6288796e-02   1.9286715e-02   6.5887231e-03  -2.1448362e-02  -5.8826257e-04   7.1698286e-03  -5.0141276e-02   8.6669294e-02  -7.9709707e-03  -1.3658629e-02   1.1843126e-01   1.0472784e-01  -1.1477317e-01  -1.3987341e-01   1.9453036e-02   5.1476904e-03  -2.7831035e-02   7.6142151e-02  -1.4563659e-01  -3.2730423e-02  -5.2305229e-02
   3.0791642e-04  -7.9168339e-04  -1.4432813e-03   8.4152544e-04  -4.5935257e-03   2.1516567e-02   8.5354535e-03   1.6993215e-02   2.7667883e-02   5.5596817e-03  -5.2028362e-02   1.2720395e-02  -3.2457077e-03  -1.6954625e-03  -3.3577973e-02   1.0277004e-01  -3.4658224e-02  -1.4187180e-01  -4.2310050e-02  -5.5979596e-02   2.6747582e-02  -1.7953180e-01   2.1058882e-01
   2.6503136e-03  -1.2905821e-02   5.4474685e-03  -1.5795526e-02   1.8968375e-03  -5.0792047e-03  -2.5943565e-02   1.7089435e-02  -2.8067643e-02  -7.8424630e-02  -3.2486522e-02  -1.3341733e-02   5.4088971e-02   7.7720911e-03  -1.1613921e-01  -1.2975819e-01   2.2360766e-02   6.2669082e-02  -1.4901421e-01   1.4161600e-01   8.8697446e-02   1.1083568e-01   6.5400239e-03
   5.5559450e-04  -1.3094697e-02  -2.2787138e-03  -1.4290175e-02  -7.9346023e-03  -3.7076024e-02  -3.2281609e-02   3.5780029e-02  -5.8253315e-02  -1.3111672e-01  -5.1888803e-02   7.0064027e-02   1.0597274e-01   1.2710762e-02   3.7789301e-02   1.0411466e-01  -7.4065800e-03   2.6464450e-02  -1.2309958e-01   1.9123109e-02  -8.6001338e-02   6.2981049e-02  -1.4681779e-01
  -3.0770059e-04  -4.7166810e-03  -9.5480984e-03   4.7067380e-03   2.9257273e-02   2.8592523e-02   3.4232208e-03  -1.9319377e-02   2.9948844e-02   4.0974108e-02   1.0768392e-02  -3.5429579e-02  -4.3974346e-02   6.0438529e-03  -3.4500631e-02   4.5541672e-02  -1.1671973e-02  -1.2796103e-01  -4.1296892e-02   7.5896979e-02  -7.1003891e-02  -1.3518692e-01  -5.6667320e-02
  -7.9595962e-04  -2.8605421e-03   3.5253542e-03  -1.1329327e-02  -3.0983480e-03  -1.1027677e-02  -3.0603874e-03  -5.7270432e-03   3.7122909e-02   2.1316207e-02   2.7588281e-02   1.8137858e-03  -3.6326943e-02  -3.9436959e-02   3.3589434e-02   5.9857288e-03   1.0404406e-01   2.1243768e-02   5.1549724e-02  -1.1748912e-01  -1.8273542e-02   6.5292653e-02   7.4816088e-02
  -2.1196734e-03  -5.4852623e-04   5.6143937e-03  -2.4961496e-02   5.1636411e-03   7.9593673e-03   1.2757112e-02   2.3507193e-02   3.4551518e-02   1.2261868e-01   4.6825062e-02  -7.5196879e-02  -5.3957314e-02   5.9664315e-02  -2.1694221e-02   8.9271659e-02   4.6261168e-02  -2.2671621e-02   6.9703587e-02  -1.6578686e-01  -2.2950063e-02   4.6135214e-02   2.9299462e-02
  -5.6596775e-04   4.4823169e-03   1.4972277e-02   6.4227151e-03   6.3253581e-03  -2.5793075e-03   3.4182878e-02   5.6501056e-02  -1.0267839e-01   3.4832338e-02   7.8355896e-02   4.8031472e-02  -8.7895351e-02  -5.3300571e-02  -8.8346375e-04  -1.0783819e-01  -1.2438860e-01  -1.5379727e-01   1.4812728e-01   1.9852832e-01   6.8102720e-03  -2.1231785e-02   5.8560376e-02
  -1.5269892e-03   2.4420190e-03  -2.2901126e-02  -7.0959225e-03  -1.0066071e-02  -7.4193529e-03  -1.4024742e-02   1.8210175e-02   4.5021928e-02  -4.2672028e-02  -5.2034831e-02  -5.2452935e-02   8.0693367e-02   6.2328778e-03  -7.1997834e-02  -7.1422712e-02  -1.6569318e-02   1.3160601e-03  -2.1355428e-03  -1.6624092e-01   5.7945348e-02   3.4348592e-02   1.6155673e-02
   5.1261847e-03   1.4460126e-02  -1.3674612e-02  -2.4921823e-02  -1.5125339e-03  -5.6520735e-03  -2.7285751e-02  -5.0333126e-03   2.6943142e-02  -1.5703773e-03  -1.0755739e-02  -2.0956645e-02   3.3051669e-02  -5.0762418e-02  -2.7000353e-02  -8.8739000e-02   9.8604541e-02   9.9798255e-02   4.3697117e-02  -7.2239587e-02   1.3126309e-01  -1.3203269e-02   2.4573234e-02
   1.0362820e-02  -1.0847625e-03   3.2334763e-02   1.7290555e-02   7.4416662e-03  -1.4681415e-02  -2.2919796e-03  -3.3550822e-03  -3.7758851e-02   9.4857456e-02  -1.6057518e-02  -1.3162398e-02   1.2548094e-01   1.1121844e-01  -9.7153158e-02  -7.6721041e-02   3.1180320e-02   2.0554185e-02  -3.1051562e-02   6.2778381e-02  -1.6512655e-01  -8.1399373e-02  -8.4595511e-02
   4.3935494e-04  -1.8920630e-03  -1.7012718e-03   1.4419414e-03  -3.0344972e-03   1.9025523e-02   7.0846591e-03   1.5259803e-02   2.8120584e-02  -8.3118267e-03  -5.7390155e-02   3.6612892e-02  -1.9940561e-02  -2.4144856e-02  -2.0554829e-02   9.3874766e-02  -4.4598309e-02  -1.3140524e-01  -1.3185608e-02  -7.1688828e-02   4.9082643e-02  -2.0754643e-01   2.0622779e-01
   3.0346003e-03  -1.1367934e-02   3.2579284e-03  -1.2674311e-02  -2.6566666e-03   3.4866265e-03  -1.9089190e-02   8.8796570e-03  -2.9487633e-02  -7.9542019e-02  -4.2938855e-02   8.0787978e-03   5.2195118e-02   1.1004835e-02  -1.4061152e-01  -1.2596546e-01   3.6253869e-02   7.9440692e-02  -1.2475568e-01   1.3117769e-01   9.4264940e-02   1.0536400e-01   2.3977739e-02
   6.6301206e-04  -1.3527985e-02  -1.3158190e-03  -1.2311671e-02  -1.0316591e-02  -3.8759943e-02  -2.9900710e-02   3.1937112e-02  -5.7250253e-02  -1.3554508e-01  -4.5042184e-02   6.3102489e-02   1.1113968e-01   1.4223220e-02   2.5815880e-02   9.0347191e-02   8.4036505e-03   2.5791900e-02  -1.0151975e-01   1.3100003e-02  -9.4187002e-02   4.2907991e-02  -1.1136288e-01
  -7.2762493e-05  -3.1347148e-03  -5.2523750e-03   1.7728957e-03   2.4498304e-02   2.5727439e-02   2.4829476e-03  -1.3974950e-02   1.6358025e-02   3.6997539e-02  -1.2951230e-02  -1.1537017e-02  -2.9529212e-02   2.3621508e-02  -3.0861463e-03   6.6935492e-02   2.4056469e-03  -8.5968399e-02  -6.6072992e-02   3.5222950e-02  -3.3107233e-02  -9.6429846e-02  -7.8688835e-02
  -1.1240434e-03  -2.1999276e-03   4.9121861e-03  -1.3527046e-02  -2.2969422e-03  -7.7980132e-03  -7.6165632e-03   5.0437407e-03   3.1896387e-02   3.2668328e-02   3.1936013e-02  -6.0349564e-03  -4.4414494e-02  -2.4830785e-02   2.2854165e-02   2.2836918e-02   1.0089066e-01   8.5873871e-03   7.4556621e-02  -1.4642993e-01  -1.2784551e-02   5.1310849e-02   7.6107972e-02
  -2.3768031e-03  -1.2828447e-03   7.3314713e-03  -3.2384055e-02   4.3867065e-03   7.8794163e-03   1.1159274e-02   3.0860502e-02   4.5101133e-02   1.3711987e-01   5.8812040e-02  -8.2809890e-02  -7.6165686e-02   5.7450703e-02  -2.1277748e-02   8.6383135e-02   6.5094986e-02  -1.7481022e-02   8.9042409e-02  -2.0706144e-01  -4.0776687e-02   4.9747252e-02   4.5441487e-02
  -2.8826793e-03   3.6477841e-03   1.3211926e-02   3.7628730e-03  -3.0936134e-03   2.7222855e-03   2.5257351e-02   5.9949523e-02  -8.4914988e-02   2.9047898e-02   1.1537946e-01   5.9809875e-02  -1.0651338e-01  -3.0619355e-02   4.0357987e-02  -1.1462681e-01  -7.8201327e-02  -1.7002240e-01   1.9909074e-01   1.9431086e-01  -1.0498275e-03  -7.5961616e-03   5.6567074e-02
  -1.3847106e-03   1.7466212e-03  -2.2077981e-02  -2.2704101e-03  -4.4915427e-03  -9.4221649e-03  -9.3212556e-03   9.3954644e-03   4.7550481e-02  -2.0084477e-02  -5.7078303e-02  -5.3435347e-02   8.0727379e-02   6.3048925e-03  -9.5440167e-02  -3.0056916e-02   6.3631926e-03   3.1014924e-02  -6.9921346e-03  -1.8863266e-01   4.8188317e-02   6.0196287e-02   3.2953630e-02
   6.3549569e-03   1.1218135e-02  -1.1707782e-02  -1.7177372e-02  -5.2463852e-03   6.7654522e-04  -2.8179864e-02  -1.5055272e-02   1.6433664e-02  -5.4198302e-03   1.4632006e-02  -6.0437626e-02   4.6715872e-02  -8.0773113e-02  -4.8845449e-02  -7.0523085e-02   8.7326029e-02   5.3541299e-02   5.0127715e-02  -5.0134979e-02   1.2706056e-01   1.2328853e-02   2.5387855e-02
   7.0536410e-03  -1.3074089e-03   2.7337786e-02   1.4846903e-02   6.8673399e-03  -4.8260257e-03  -3.4724480e-03  -1.6617565e-02  -2.3829392e-02   9.7439936e-02  -1.7094970e-02  -1.4650211e-02   1.3471110e-01   1.2085601e-01  -8.4999686e-02  -8.4226659e-03   5.8025029e-02   4.2453887e-02  -3.2319055e-02   5.4290179e-02  -1.8918339e-01  -1.1579557e-01  -1.2226096e-01
   4.7227961e-04  -3.0247263e-03  -1.7477000e-03   1.9019731e-03  -1.8637790e-03   1.6241490e-02   2.6420122e-03   1.3551537e-02   2.7627348e-02  -2.7921967e-02  -5.8345202e-02   5.9990492e-02  -4.0042933e-02  -5.2614295e-02  -1.2432403e-02   8.8501087e-02  -5.3533164e-02  -1.1086598e-01   2.6294631e-02  -9.3021387e-02   6.6974473e-02  -2.2591306e-01   2.0149452e-01
   3.2988360e-03  -9.9389260e-03  -3.5010847e-04  -8.8606875e-03  -8.1311231e-03   1.2025407e-02  -1.2428791e-02   1.0638955e-03  -3.0768721e-02  -8.1053015e-02  -5.1733532e-02   3.0571854e-02   4.7043747e-02   9.3972485e-03  -1.6502846e-01  -1.2090148e-01   4.1807680e-02   9.1300861e-02  -8.6208874e-02   1.1775383e-01   9.2061264e-02   8.9950927e-02   4.3032782e-02
   7.8096630e-04  -1.2866499e-02  -3.5211834e-04  -9.6366124e-03  -1.1742014e-02  -3.7417196e-02  -2.6062191e-02   2.5158038e-02  -5.2931169e-02  -1.3108999e-01  -3.8634855e-02   5.2060502e-02   1.0629307e-01   1.3675693e-02   1.1993744e-02   6.0625351e-02   1.6730181e-02   2.7724929e-02  -7.1122033e-02   1.0060025e-02  -8.2550665e-02   2.9830848e-02  -6.5698043e-02
   1.1111051e-04  -1.1858655e-03   1.2826772e-03  -3.5109477e-03   1.9357200e-02   2.2745531e-02  -1.4831593e-04  -9.9744616e-03  -3.2049474e-04   2.9856781e-02  -4.4461838e-02   1.9016199e-02  -1.3074492e-02   4.5063896e-02   4.3225061e-02   8.3016120e-02   2.3396691e-02  -2.2393272e-02  -9.6972783e-02  -1.6227353e-02   1.8645984e-02  -4.5973810e-02  -8.9919262e-02
  -1.3497692e-03  -1.0084921e-03   6.0152057e-03  -9.5500027e-03   1.0819982e-03  -1.9081331e-03  -1.2755222e-02   1.9935052e-02   1.7850299e-02   4.8077486e-02   3.8396199e-02  -1.5606047e-02  -3.8488058e-02  -5.9263285e-03  -1.4430396e-03   5.1922726e-02   7.3540175e-02  -1.1173345e-02   1.0094896e-01  -1.6766822e-01  -1.4496313e-02   3.2615837e-02   6.4917317e-02
  -2.5252266e-03  -2.2204981e-03   7.9339098e-03  -3.8390006e-02   2.3392264e-03   5.1687296e-03   9.7600933e-03   3.2161802e-02   5.3224777e-02   1.3837969e-01   6.8036747e-02  -8.5050223e-02  -9.4185693e-02   5.0271671e-02  -1.8737410e-02   7.7242750e-02   8.3305911e-02  -1.0856935e-02   9.8276979e-02  -2.2207872e-01  -5.1981914e-02   4.9081238e-02   5.1260876e-02
  -5.2740682e-03   2.1507013e-03   1.1289494e-02   4.6496290e-04  -1.2740254e-02   9.3657911e-03   1.5494932e-02   5.7679022e-02  -6.0350159e-02   2.0973632e-02   1.4894536e-01   7.1696016e-02  -1.2249192e-01  -5.7825276e-03   8.8583035e-02  -1.1125019e-01  -2.8757173e-02  -1.7899308e-01   2.4921946e-01   1.8745976e-01  -7.3261311e-03   1.3529121e-02   4.9579221e-02
  -1.5758130e-03   3.8910156e-04  -2.0715229e-02   2.7631945e-03   1.9674854e-03  -1.0775367e-02  -4.7155716e-03  -4.2011928e-03   5.2683999e-02   8.4813145e-03  -6.1890180e-02  -5.1354045e-02   7.8351187e-02   9.9839163e-03  -1.1056707e-01   2.3301724e-02   2.7611033e-02   6.8975190e-02  -1.2785942e-02  -2.0978970e-01   3.4751763e-02   8.3683544e-02   4.9596836e-02
   7.5485739e-03   7.2489432e-03  -9.2359942e-03  -9.4589167e-03  -9.5850845e-03   8.2762332e-03  -2.7140599e-02  -2.6273377e-02   5.1738169e-03  -1.0970782e-02   4.1395104e-02  -1.0261117e-01   6.2344675e-02  -1.1102602e-01  -6.9651322e-02  -4.1778455e-02   7.6751053e-02   3.6896163e-03   4.7529099e-02  -2.4015421e-02   1.1132265e-01   4.2599741e-02   2.2792449e-02
   3.7744569e-03  -1.7627273e-03   2.1642312e-02   1.1919086e-02   4.8587182e-03   7.5760803e-03  -4.0458810e-03  -3.1870808e-02  -9.2777879e-03   9.4114496e-02  -1.1547834e-02  -1.7662167e-02   1.4481687e-01   1.3207353e-01  -7.7223964e-02   6.2509047e-02   9.7321364e-02   7.0168148e-02  -3.2746859e-02   5.1382116e-02  -2.1692308e-01  -1.3315113e-01  -1.6243306e-01
   3.8887431e-04  -4.0716620e-03  -1.6398690e-03   2.4583785e-03  -9.8945213e-04   1.3751514e-02  -4.4346862e-03   1.2486221e-02   2.5757796e-02  -5.0703705e-02  -5.4549790e-02   8.0326801e-02  -6.0439112e-02  -8.3689674e-02  -1.1253197e-02   8.6775239e-02  -6.2453704e-02  -8.2707614e-02   7.4362833e-02  -1.1755092e-01   7.8271851e-02  -2.3362784e-01   1.9541937e-01
   3.4111500e-03  -8.7566681e-03  -5.3438061e-03  -4.2412123e-03  -1.3937648e-02   1.9763587e-02  -6.5666582e-03  -5.5601260e-03  -3.1636695e-02  -8.2978949e-02  -5.7483191e-02   5.1680869e-02   3.8961299e-02   3.0972810e-03  -1.8953304e-01  -1.1188448e-01   3.8707904e-02   9.4442727e-02  -3.7337933e-02   1.0368298e-01   8.1313447e-02   6.3667066e-02   6.0191423e-02
   8.8241775e-04  -1.0875302e-02   6.4145185e-04  -6.4965939e-03  -1.1833844e-02  -3.2560645e-02  -2.0993820e-02   1.5337881e-02  -4.4825687e-02  -1.1671146e-01  -3.3894687e-02   3.8200909e-02   8.9761760e-02   1.0045883e-02  -2.1631523e-03   1.5766939e-02   1.6662619e-02   3.4233200e-02  -3.4431822e-02   8.8286073e-03  -4.6816914e-02   2.7678959e-02  -1.2643706e-02
   1.6608506e-04   7.2913125e-04   8.8154677e-03  -1.0385279e-02   1.5170205e-02   2.0179838e-02  -4.3094862e-03  -8.2014015e-03  -1.6832955e-02   2.1537751e-02  -7.7562962e-02   5.0587925e-02   2.0903287e-03   6.5368730e-02   9.8907629e-02   9.0352614e-02   4.6237001e-02   5.2287077e-02  -1.2855726e-01  -7.0084614e-02   7.4374553e-02   7.2396856e-03  -8.7100955e-02
  -1.4325033e-03   4.4723072e-04   6.6051046e-03   4.2795975e-04   6.3643921e-03   5.4799677e-03  -1.7692884e-02   3.6563706e-02  -3.5824282e-03   6.3263371e-02   4.5802514e-02  -2.4459780e-02  -1.9379659e-02   1.2830491e-02  -3.6062610e-02   9.0126439e-02   2.5851206e-02  -3.3964862e-02   1.2592530e-01  -1.7758837e-01  -2.2608517e-02   1.0409016e-02   4.3194128e-02
  -2.4881106e-03  -3.1325239e-03   7.2961644e-03  -4.1446751e-02  -6.9708418e-04   3.4571451e-04   8.9288942e-03   2.6472719e-02   5.6519669e-02   1.2550518e-01   7.2770049e-02  -8.1574091e-02  -1.0212535e-01   3.9319596e-02  -1.5738805e-02   6.1557533e-02   9.4872294e-02  -2.4912658e-03   9.4483523e-02  -2.0226349e-01  -5.0860549e-02   4.7022614e-02   4.3958086e-02
  -7.6167240e-03  -7.6444410e-06   9.2114884e-03  -2.9963755e-03  -2.1823842e-02   1.7055089e-02   5.7715640e-03   4.9575724e-02  -3.0285201e-02   1.1371791e-02   1.7664797e-01   8.2554011e-02  -1.3422742e-01   1.9705247e-02   1.4088024e-01  -9.7073769e-02   1.9961261e-02  -1.7916613e-01   2.9498906e-01   1.7843637e-01  -1.2103755e-02   4.0228738e-02   3.7600129e-02
  -2.0961207e-03  -1.6847089e-03  -1.9076275e-02   7.7897764e-03   8.7057829e-03  -1.0813626e-02  -4.0870593e-04  -2.1930962e-02   6.0070034e-02   4.0767782e-02  -6.5647553e-02  -4.5758520e-02   7.4187160e-02   1.7547841e-02  -1.1529139e-01   8.4382894e-02   4.6464082e-02   1.1217841e-01  -1.9267545e-02  -2.2767240e-01   1.8699297e-02   1.0276571e-01   6.5484581e-02
   8.6226177e-03   2.8440274e-03  -6.5667848e-03  -2.2631033e-03  -1.4252185e-02   1.6779462e-02  -2.4306732e-02  -3.7500485e-02  -5.9692939e-03  -1.8049205e-02   6.7422413e-02  -1.4375909e-01   7.9096543e-02  -1.3891151e-01  -8.7912794e-02  -5.7133819e-03   6.6403702e-02  -4.6091692e-02   3.6688495e-02   4.6714636e-03   8.6243008e-02   7.4695317e-02   1.7165202e-02
   7.6337006e-04  -2.3652269e-03   1.5760532e-02   8.6210797e-03   1.6645956e-03   2.1412350e-02  -3.9819065e-03  -4.7977447e-02   4.6709467e-03   8.5318939e-02  -5.8732585e-04  -2.1367112e-02   1.5389275e-01   1.4254776e-01  -7.1949566e-02   1.3316405e-01   1.4469013e-01   1.0213945e-01  -3.3487355e-02   5.3981559e-02  -2.4634725e-01  -1.3216640e-01  -2.0155967e-01
   1.7928056e-04  -4.9067005e-03  -1.4773797e-03   3.2797507e-03  -2.6443633e-04   1.2061895e-02  -1.3419332e-02   1.2683560e-02   2.1969085e-02  -7.3505356e-02  -4.6188973e-02   9.5096145e-02  -7.7569645e-02  -1.1268758e-01  -1.7919614e-02   8.7991460e-02  -7.2150980e-02  -5.0406374e-02   1.2755822e-01  -1.4170079e-01   8.1124993e-02  -2.3052024e-01   1.8596749e-01
   3.3479818e-03  -7.9491155e-03  -1.1477798e-02   1.1823067e-03  -1.9352799e-02   2.5822488e-02  -2.2011176e-03  -1.0343332e-02  -3.1852925e-02  -8.5374373e-02  -5.9187651e-02   6.8935090e-02   2.8590801e-02  -7.0303599e-03  -2.1366892e-01  -9.5756439e-02   2.8091957e-02   8.5667973e-02   1.5621834e-02   9.1299059e-02   6.2630699e-02   2.6818354e-02   7.1514598e-02
   9.2979336e-04  -7.5218438e-03   1.6711783e-03  -3.2579199e-03  -1.0390365e-02  -2.4133071e-02  -1.5174743e-02   2.8827359e-03  -3.2852182e-02  -9.2787880e-02  -3.1567551e-02   2.2956162e-02   6.1202169e-02   2.3657915e-03  -1.5462858e-02  -4.1118351e-02   8.7048606e-03   4.6461851e-02   4.7970766e-03   8.0904430e-03   1.3705303e-02   3.8720062e-02   4.4366583e-02
   2.9230937e-05   2.1914042e-03   1.5604619e-02  -1.7344446e-02   1.3157234e-02   1.8108855e-02  -9.5523961e-03  -8.7968594e-03  -2.9363531e-02   1.4127579e-02  -1.0315644e-01   7.4475886e-02   1.2132788e-02   7.8799705e-02   1.5270180e-01   8.8936719e-02   6.5058918e-02   1.2156416e-01  -1.5486388e-01  -1.1435970e-01   1.2159143e-01   5.2283620e-02  -6.9938175e-02
  -1.3378547e-03   1.7569405e-03   6.4896025e-03   1.4598645e-02   1.2075072e-02   1.2335605e-02  -2.1514264e-02   5.0895331e-02  -2.8437896e-02   7.1895348e-02   5.2144933e-02  -2.9080164e-02   8.3204088e-03   2.5142319e-02  -7.4177422e-02   1.3071305e-01  -3.1812371e-02  -5.3133140e-02   1.4346752e-01  -1.7326802e-01  -3.3166791e-02  -1.2344822e-02   1.5784261e-02
  -2.2155545e-03  -3.7465740e-03   5.4807417e-03  -3.9958851e-02  -4.0320042e-03  -5.3543452e-03   8.9611602e-03   1.4236237e-02   5.2400656e-02   1.0017076e-01   7.1872578e-02  -7.2907326e-02  -9.3973682e-02   2.7112497e-02  -1.4596704e-02   4.0546936e-02   9.2382458e-02   7.5211617e-03   7.7002906e-02  -1.4357448e-01  -3.3652500e-02   4.6621322e-02   2.2042331e-02
  -9.7572652e-03  -2.7348045e-03   6.9878732e-03  -6.0808953e-03  -2.9520442e-02   2.5145207e-02  -3.0119024e-03   3.5934998e-02   3.4666033e-03   1.0798696e-03   1.9601621e-01   9.0675636e-02  -1.4022216e-01   4.3998086e-02   1.9262277e-01  -7.1893641e-02   6.4047575e-02  -1.6948908e-01   3.3240199e-01   1.6745400e-01  -1.5520892e-02   6.9847561e-02   2.0789073e-02
  -2.8998490e-03  -4.4076570e-03  -1.7403552e-02   1.2483999e-02   1.4902775e-02  -9.0507368e-03   3.3484119e-03  -4.2571441e-02   6.8853940e-02   7.3348233e-02  -6.7018351e-02  -3.6823137e-02   6.8536566e-02   2.8633636e-02  -1.0907034e-01   1.4815221e-01   6.2346073e-02   1.5628477e-01  -2.5907098e-02  -2.3919457e-01   1.5026974e-03   1.1555672e-01   7.9233715e-02
   9.4767505e-03  -1.6198934e-03  -4.0932541e-03   3.9519797e-03  -1.8847186e-02   2.5566773e-02  -1.9989277e-02  -4.7016769e-02  -1.5837492e-02  -2.6295377e-02   9.0502782e-02  -1.7969003e-01   9.5659055e-02  -1.6154726e-01  -1.0215247e-01   3.3585104e-02   5.5531374e-02  -9.1953461e-02   1.9122219e-02   3.4285878e-02   5.4816716e-02   1.0507237e-01   8.9984285e-03
  -1.7192416e-03  -2.9691225e-03   1.0365778e-02   5.2565306e-03  -2.2045159e-03   3.5000376e-02  -3.3043256e-03  -6.3453233e-02   1.6536874e-02   7.2240617e-02   1.3945514e-02  -2.4581972e-02   1.5942878e-01   1.4924668e-01  -6.6681855e-02   2.0022256e-01   1.9411327e-01   1.3580832e-01  -3.5460616e-02   6.1092643e-02  -2.7421872e-01  -1.1313316e-01  -2.3539292e-01
  -1.5210757e-04  -5.3930608e-03  -1.3737844e-03   4.3189925e-03   4.4413404e-04   1.1483291e-02  -2.3198622e-02   1.4584382e-02   1.5776269e-02  -9.2875797e-02  -3.4116948e-02   1.0193875e-01  -8.7859518e-02  -1.3392175e-01  -3.1800945e-02   9.0413533e-02  -8.2801917e-02  -1.8014345e-02   1.8038717e-01  -1.6075284e-01   7.4601143e-02  -2.1691668e-01   1.7020981e-01
   3.0954417e-03  -7.6314627e-03  -1.8252546e-02   7.1961339e-03  -2.3514045e-02   2.9330774e-02  -1.0390685e-04  -1.2935355e-02  -3.1189388e-02  -8.8256057e-02  -5.6560608e-02   8.0250867e-02   1.6843129e-02  -1.9482701e-02  -2.3568365e-01  -6.9443344e-02   1.2588285e-02   6.3137843e-02   6.4392468e-02   8.2362480e-02   3.8199186e-02  -1.8916797e-02   7.3253034e-02
   8.8309317e-04  -3.0385078e-03   2.6752056e-03  -3.5172523e-04  -7.4417440e-03  -1.2663975e-02  -9.3126472e-03  -1.1103926e-02  -1.7493953e-02  -6.1335538e-02  -3.1726892e-02   7.8690473e-03   2.2126375e-02  -9.9161032e-03  -2.7272009e-02  -1.0427123e-01  -5.1014593e-03   6.3845813e-02   4.1670953e-02   6.6390198e-03   9.4962688e-02   6.2715996e-02   1.0095291e-01
  -3.3203393e-04   2.8416859e-03   1.9687011e-02  -2.2277415e-02   1.4114327e-02   1.6084768e-02  -1.5171177e-02  -1.1293565e-02  -3.3986964e-02   9.2323589e-03  -1.1075498e-01   8.0338636e-02   1.3196392e-02   7.9791872e-02   1.8856608e-01   8.2552468e-02   7.4277289e-02   1.6501826e-01  -1.6965692e-01  -1.3509105e-01   1.4734357e-01   7.7752187e-02  -4.1505856e-02
  -1.0428914e-03   2.4261387e-03   5.5459811e-03   2.9681946e-02   1.6190114e-02   1.6212116e-02  -2.3236060e-02   5.7759973e-02  -5.0426093e-02   6.7123174e-02   5.4830797e-02  -2.5486981e-02   3.7043187e-02   2.3995412e-02  -1.0613629e-01   1.6372486e-01  -8.4180171e-02  -6.0774373e-02   1.4740337e-01  -1.5290309e-01  -3.9835317e-02  -3.1037144e-02  -9.8111024e-03
  -1.6959860e-03  -3.7862684e-03   2.7681429e-03  -3.2636261e-02  -6.6645590e-03  -1.0233733e-02   1.0011296e-02  -2.5222567e-03   3.8559871e-02   6.6441856e-02   6.5104273e-02  -6.0492263e-02  -6.5050415e-02   1.7208962e-02  -1.7730646e-02   1.7178959e-02   6.8838471e-02   1.8626721e-02   4.7561137e-02  -4.8372819e-02  -5.9124577e-05   5.0416753e-02  -1.4191327e-02
  -1.1509556e-02  -5.8399182e-03   4.6472234e-03  -8.2179867e-03  -3.4977205e-02   3.2677435e-02  -9.9236492e-03   1.7425468e-02   3.8674493e-02  -8.9002301e-03   2.0448324e-01   9.3925840e-02  -1.3918895e-01   6.4830328e-02   2.3768084e-01  -3.6363895e-02   9.9839362e-02  -1.4944182e-01   3.5716184e-01   1.5423936e-01  -1.7810431e-02   9.8977973e-02  -2.3064168e-04
  -3.8961126e-03  -7.5715240e-03  -1.5866522e-02   1.6384013e-02   1.9553805e-02  -5.1828212e-03   6.2595387e-03  -6.4378878e-02   7.7734879e-02   1.0183581e-01  -6.4288606e-02  -2.5264761e-02   6.1278486e-02   4.2006231e-02  -9.2778664e-02   2.0861019e-01   7.4786377e-02   1.9576289e-01  -3.1748913e-02  -2.4049251e-01  -1.5081447e-02   1.2038583e-01   8.8898332e-02
   1.0001284e-02  -5.6841127e-03  -2.2753556e-03   8.7773242e-03  -2.2842035e-02   3.3767103e-02  -1.4652616e-02  -5.2601830e-02  -2.2955138e-02  -3.5107742e-02   1.0841135e-01  -2.0585315e-01   1.1020191e-01  -1.7589688e-01  -1.1096656e-01   7.1167424e-02   4.3214169e-02  -1.3005154e-01  -2.9652926e-03   6.2921824e-02   2.0636998e-02   1.2973979e-01  -9.2709776e-04
  -3.3943884e-03  -3.3731349e-03   6.2740490e-03   2.3403863e-03  -5.9902243e-03   4.6141975e-02  -2.0876210e-03  -7.6529890e-02   2.4634919e-02   5.6775486e-02   2.9605614e-02  -2.5798112e-02   1.5834736e-01   1.4853133e-01  -5.8466325e-02   2.5992167e-01   2.3811625e-01   1.6756971e-01  -3.9119562e-02   7.0686638e-02  -2.9597442e-01  -7.8003701e-02  -2.5898421e-01
  -5.8106558e-04  -5.3800394e-03  -1.4223073e-03   5.1740952e-03   1.1884823e-03   1.2054080e-02  -3.2260213e-02   1.8249826e-02   6.9846297e-03  -1.0528915e-01  -1.9970985e-02   9.8814472e-02  -8.8151525e-02  -1.4107868e-01  -5.0433520e-02   9.1049181e-02  -9.3661283e-02   1.0289256e-02   2.2513050e-01  -1.6892849e-01   5.9272915e-02  -1.9327138e-01   1.4473726e-01
   2.6495749e-03  -7.9076084e-03  -2.4899247e-02   1.3282202e-02  -2.5404320e-02   2.9556303e-02  -1.0902700e-03  -1.3375266e-02  -2.9416190e-02  -9.1473185e-02  -5.0247436e-02   8.4263543e-02   4.8223091e-03  -3.2245357e-02  -2.5185716e-01  -3.0570119e-02  -3.8014955e-03   2.7021400e-02   9.8954552e-02   7.7512474e-02   1.1687207e-02  -7.0453361e-02   6.2480545e-02
   7.1097168e-04   2.0388723e-03   3.4946825e-03   1.8069622e-03  -3.2947125e-03   6.1020181e-04  -4.2926048e-03  -2.4695766e-02   1.8879430e-05  -2.6093234e-02  -3.3736032e-02  -5.4015068e-03  -2.3644091e-02  -2.6518453e-02  -3.7619309e-02  -1.6514127e-01  -2.1232371e-02   8.3448287e-02   7.0362370e-02   3.5701582e-03   1.8747428e-01   9.6283606e-02   1.5144420e-01
  -9.0885868e-04   2.4481660e-03   1.9287925e-02  -2.2860694e-02   1.8156927e-02   1.3305490e-02  -2.0246909e-02  -1.4929104e-02  -2.7345634e-02   7.5599988e-03  -9.1064275e-02   5.8860478e-02   2.2155665e-03   6.4198462e-02   1.8897422e-01   7.7680678e-02   6.9884792e-02   1.6234391e-01  -1.6700049e-01  -1.1937521e-01   1.4104280e-01   7.3820129e-02  -7.9195660e-03
  -5.4793697e-04   1.9725765e-03   3.7462624e-03   4.1487851e-02   1.6622991e-02   1.4940704e-02  -2.1962393e-02   5.2013230e-02  -6.1988653e-02   4.3714853e-02   5.1264513e-02  -1.0258726e-02   5.7853340e-02   3.5837184e-03  -1.2112064e-01   1.7753317e-01  -1.1430598e-01  -4.9918074e-02   1.3299159e-01  -1.1651568e-01  -3.5727073e-02  -4.0310729e-02  -2.4586501e-02
  -9.6153581e-04  -3.0253321e-03  -3.3986865e-04  -1.8985653e-02  -7.5022814e-03  -1.2554738e-02   1.2058742e-02  -2.0338288e-02   1.3764791e-02   3.0190031e-02   5.3343830e-02  -4.6623553e-02  -1.3800896e-02   1.3504114e-02  -2.6994865e-02  -4.0468512e-03   2.0115050e-02   2.9824327e-02   1.0076819e-02   7.3314620e-02   4.5684883e-02   5.9909076e-02  -6.2059672e-02
  -1.2652972e-02  -9.0353618e-03   2.2495846e-03  -8.8536952e-03  -3.7302916e-02   3.8440605e-02  -1.3994415e-02  -4.8943821e-03   7.2708838e-02  -1.7273338e-02   1.9933561e-01   8.9935087e-02  -1.3006976e-01   7.9568396e-02   2.6889996e-01   7.4862577e-03   1.2409196e-01  -1.1902482e-01   3.6465976e-01   1.3772885e-01  -1.9420894e-02   1.2350652e-01  -2.4132951e-02
  -4.9468534e-03  -1.0821488e-02  -1.4516227e-02   1.8868273e-02   2.1534139e-02   9.2994874e-04   7.9959443e-03  -8.5072674e-02   8.4926745e-02   1.2123184e-01  -5.5550836e-02  -1.2189960e-02   5.1916170e-02   5.5526378e-02  -6.8220289e-02   2.5844692e-01   8.3410968e-02   2.2409752e-01  -3.5575296e-02  -2.2739162e-01  -2.9276029e-02   1.1587763e-01   9.2171111e-02
   1.0084823e-02  -8.8171196e-03  -1.6171730e-03   1.1855165e-02  -2.5583219e-02   4.0281991e-02  -8.8865493e-03  -5.1583884e-02  -2.5539885e-02  -4.3580676e-02   1.1898637e-01  -2.1746256e-01   1.2036850e-01  -1.7887725e-01  -1.1300722e-01   1.0121637e-01   2.8493554e-02  -1.5672322e-01  -2.6787938e-02   8.8300626e-02  -1.2367149e-02   1.4447720e-01  -1.1341936e-02
  -3.9701070e-03  -3.3297595e-03   4.4146819e-03   5.9764896e-04  -8.7199275e-03   5.2222590e-02  -4.5196952e-04  -8.5226963e-02   2.7120197e-02   4.1436827e-02   4.3442331e-02  -2.3226208e-02   1.4708087e-01   1.3631442e-01  -4.4033730e-02   3.0802176e-01   2.6806185e-01   1.9281958e-01  -4.4295277e-02   7.9646780e-02  -3.0568741e-01  -3.0392751e-02  -2.6671275e-01
  -1.0605067e-03  -4.7016963e-03  -1.6658432e-03   4.9901983e-03   1.9026228e-03   1.3526102e-02  -3.8699849e-02   2.3197305e-02  -4.0829318e-03  -1.0725615e-01  -6.2097232e-03   8.4110716e-02  -7.6081992e-02  -1.2763956e-01  -6.9365492e-02   8.5443867e-02  -1.0298322e-01   3.0528332e-02   2.5188754e-01  -1.5955100e-01   3.7612928e-02  -1.5990365e-01   1.0622582e-01
   2.0157751e-03  -8.8734152e-03  -3.0401715e-02   1.8553896e-02  -2.3835401e-02   2.6019141e-02  -5.9855361e-03  -1.2099148e-02  -2.6288794e-02  -9.4551792e-02  -4.1831598e-02   8.0452384e-02  -6.2983324e-03  -4.2979998e-02  -2.5612949e-01   2.2048552e-02  -1.5982761e-02  -2.0147927e-02   1.0792987e-01   7.5894163e-02  -1.2177517e-02  -1.2339063e-01   3.7643908e-02
   4.0492320e-04   6.8677283e-03   3.8809713e-03   2.8890201e-03   1.4482675e-03   1.3691369e-02  -1.1006595e-03  -3.5123519e-02   1.7544658e-02   7.5606822e-03  -3.6404091e-02  -1.4988771e-02  -6.9686675e-02  -4.5977922e-02  -4.7079223e-02  -2.1254472e-01  -3.4983637e-02   9.9799869e-02   8.4447628e-02  -1.6545996e-03   2.7629317e-01   1.3257712e-01   1.8866917e-01
  -1.6427529e-03   9.6670591e-04   1.3347190e-02  -1.7216077e-02   2.4588761e-02   9.0184156e-03  -2.3725581e-02  -1.8961595e-02  -7.6503437e-03   8.8328750e-03  -3.9381612e-02   5.3530893e-03  -2.1954525e-02   3.0799106e-02   1.4053388e-01   8.1040787e-02   5.0670702e-02   9.9280556e-02  -1.4255046e-01  -5.9681896e-02   9.7606163e-02   3.4905957e-02   2.2689923e-02
   1.1138951e-04   6.9674057e-05   1.2018248e-03   4.5840743e-02   1.1905532e-02   7.4341123e-03  -1.7147270e-02   3.0287626e-02  -5.6228607e-02   4.6757128e-04   3.9749585e-02   1.8045375e-02   6.2637613e-02  -3.8357811e-02  -1.0972827e-01   1.6178564e-01  -1.0824548e-01  -1.7067435e-02   9.8813403e-02  -6.6963111e-02  -1.6124353e-02  -3.5640807e-02  -2.0143003e-02
  -9.0364009e-05  -1.3661780e-03  -3.1744060e-03   1.3689710e-04  -5.6926140e-03  -1.1057375e-02   1.4927249e-02  -3.4850618e-02  -2.1017987e-02  -1.8204417e-03   3.8678480e-02  -3.4236121e-02   5.6306774e-02   1.9251398e-02  -4.2919107e-02  -1.7984352e-02  -5.2127237e-02   3.9516075e-02  -2.9738921e-02   2.0347558e-01   9.4396503e-02   7.5176217e-02  -1.1576792e-01
  -1.2932150e-02  -1.1943073e-02  -1.0336267e-04  -7.5015263e-03  -3.5561142e-02   4.1023845e-02  -1.4225104e-02  -2.9508095e-02   1.0248925e-01  -2.2337481e-02   1.7767804e-01   7.6256008e-02  -1.1198208e-01   8.5400399e-02   2.7863699e-01   5.5815840e-02   1.3418023e-01  -7.8735281e-02   3.4980191e-01   1.1578088e-01  -2.1147460e-02   1.3878470e-01  -4.8768361e-02
  -5.8660621e-03  -1.3659420e-02  -1.3248125e-02   1.9144735e-02   1.9674761e-02   9.2578654e-03   8.2007516e-03  -1.0174659e-01   8.8024451e-02   1.2633321e-01  -3.8900695e-02   1.0220288e-03   3.9750045e-02   6.6335775e-02  -3.7541347e-02   2.8876167e-01   8.7986250e-02   2.3402311e-01  -3.6359730e-02  -1.9596726e-01  -3.9588883e-02   1.0114373e-01   8.6496948e-02
   9.6223118e-03  -1.0429424e-02  -2.6424694e-03   1.2873531e-02  -2.6303024e-02   4.3824492e-02  -3.3753315e-03  -4.0897927e-02  -2.1557440e-02  -5.0453622e-02   1.2020085e-01  -2.0964671e-01   1.2330978e-01  -1.6743863e-01  -1.0693750e-01   1.1705044e-01   1.0521800e-02  -1.6865502e-01  -4.9152545e-02   1.0765705e-01  -4.0226826e-02   1.4509542e-01  -2.0301607e-02
  -3.1494078e-03  -2.5581619e-03   5.7907675e-03   9.3791535e-04  -9.2613620e-03   5.0343394e-02   1.4400750e-03  -8.7427598e-02   2.2028392e-02   2.9211443e-02   5.2134425e-02  -1.4872909e-02   1.2168699e-01   1.0827410e-01  -1.9955310e-02   3.3979918e-01   2.7455711e-01   2.0607720e-01  -5.0138822e-02   8.3793181e-02  -2.9608144e-01   2.4498015e-02  -2.5236620e-01
  -1.5209815e-03  -3.1769704e-03  -2.0774310e-03   2.4340861e-03   2.4145066e-03   1.5420922e-02  -4.0263170e-02   2.8339251e-02  -1.6446663e-02  -9.5296153e-02   3.9767454e-03   5.6653281e-02  -5.0345351e-02  -8.7288002e-02  -8.2232542e-02   6.7606380e-02  -1.0828278e-01   3.9056818e-02   2.4891418e-01  -1.2529295e-01   1.4061508e-02  -1.1694093e-01   5.2006111e-02
   1.2069794e-03  -1.0620546e-02  -3.3565917e-02   2.1748485e-02  -1.7447175e-02   1.8550166e-02  -1.5591887e-02  -9.8705544e-03  -2.1498435e-02  -9.6567235e-02  -3.3550570e-02   6.8951973e-02  -1.5477449e-02  -4.9286048e-02  -2.4030749e-01   8.8201322e-02  -1.8174553e-02  -7.3618886e-02   7.9113523e-02   7.5120933e-02  -2.8338689e-02  -1.7227498e-01  -1.0421362e-03
  -5.5883690e-06   1.0333718e-02   3.5423240e-03   2.6909251e-03   5.8964916e-03   2.3849464e-02  -7.2740728e-04  -3.8890347e-02   3.1908092e-02   3.2856829e-02  -3.8352550e-02  -1.8624931e-02  -1.0690916e-01  -6.5411268e-02  -5.6375711e-02  -2.3322002e-01  -4.0965989e-02   1.0535795e-01   7.7354986e-02  -9.3107265e-03   3.4172352e-01   1.6137727e-01   2.0400620e-01
  -2.4173832e-03  -1.3953952e-03   2.1196478e-03  -4.7800811e-03   3.1948206e-02   3.0539930e-03  -2.4557733e-02  -2.2814680e-02   2.4012113e-02   1.2100733e-02   4.0750674e-02  -7.6389476e-02  -5.7234698e-02  -1.7187830e-02   4.1104695e-02   9.6350105e-02   1.9021231e-02  -2.5036232e-02  -9.5706061e-02   4.1040179e-02   2.0399498e-02  -3.7134175e-02   4.1779021e-02
