   0.0000000e+00   0.0000000e+00   0.0000000e+00   0.0000000e+00   0.0000000e+00   0.0000000e+00   0.0000000e+00   0.0000000e+00   0.0000000e+00   0.0000000e+00   0.0000000e+00   0.0000000e+00   0.0000000e+00   0.0000000e+00   0.0000000e+00   0.0000000e+00
   0.0000000e+00   0.0000000e+00   0.0000000e+00   0.0000000e+00   0.0000000e+00   0.0000000e+00   0.0000000e+00   0.0000000e+00   0.0000000e+00   0.0000000e+00   0.0000000e+00   0.0000000e+00   0.0000000e+00   0.0000000e+00   0.0000000e+00   0.0000000e+00
   0.0000000e+00   0.0000000e+00   0.0000000e+00   0.0000000e+00   0.0000000e+00   0.0000000e+00   0.0000000e+00   0.0000000e+00   0.0000000e+00   0.0000000e+00   0.0000000e+00   0.0000000e+00   0.0000000e+00   0.0000000e+00   0.0000000e+00   0.0000000e+00
   0.0000000e+00   0.0000000e+00   0.0000000e+00   0.0000000e+00   0.0000000e+00   0.0000000e+00   0.0000000e+00   0.0000000e+00   0.0000000e+00   0.0000000e+00   0.0000000e+00   0.0000000e+00   0.0000000e+00   0.0000000e+00   0.0000000e+00   0.0000000e+00
   0.0000000e+00   0.0000000e+00   0.0000000e+00   0.0000000e+00   0.0000000e+00   0.0000000e+00   0.0000000e+00   0.0000000e+00   0.0000000e+00   0.0000000e+00   0.0000000e+00   0.0000000e+00   0.0000000e+00   0.0000000e+00   0.0000000e+00   0.0000000e+00
   0.0000000e+00   0.0000000e+00   0.0000000e+00   0.0000000e+00   0.0000000e+00   0.0000000e+00   0.0000000e+00   0.0000000e+00   0.0000000e+00   0.0000000e+00   0.0000000e+00   0.0000000e+00   0.0000000e+00   0.0000000e+00   0.0000000e+00   0.0000000e+00
  -5.7426405e-02   3.1622881e-01  -3.4000362e-01   1.0953206e+00   6.5175304e-01   7.7403681e-01   1.7248647e+00  -3.3458757e-02  -1.3957843e+00   1.2839129e+00  -3.9303893e+00  -2.7190285e+00  -2.8111022e+00  -3.9718861e+00  -1.7962418e+00  -4.0691331e+00
  -1.5358899e-02  -4.6915590e-01  -4.9105036e-01   9.9330380e-01  -1.9377058e+00  -5.9093832e-01  -1.9248567e+00   1.3239408e+00   5.1615623e-01  -9.9386471e-01  -8.7356390e-01   7.5150612e+00  -3.1687225e+00   7.1753413e+00  -1.2785647e+00  -3.6582308e+00
  -3.8365774e-01   1.0774287e+00   7.1021266e-01   5.4769895e-01  -1.8839518e+00  -4.5735440e-01   1.3202974e+00   1.4559463e+00  -3.1353437e+00   4.4607921e-01  -2.1326569e+00   3.2883917e+00  -2.9040610e+00  -8.6484275e+00  -2.2019068e-01   7.7485973e-01
  -1.9925457e-01  -3.9916381e-01   1.0078841e+00  -7.1049022e-02  -2.8047817e+00  -8.3719043e-01   2.1469883e+00  -3.1352139e+00   1.3213101e+00  -4.8101116e+00  -1.4626240e+00  -4.8832200e+00   2.1102637e+00   4.7771639e+00  -6.9761041e+00   8.1514385e-01
   0.0000000e+00   0.0000000e+00   0.0000000e+00   0.0000000e+00   0.0000000e+00   0.0000000e+00   0.0000000e+00   0.0000000e+00   0.0000000e+00   0.0000000e+00   0.0000000e+00   0.0000000e+00   0.0000000e+00   0.0000000e+00   0.0000000e+00   0.0000000e+00
   0.0000000e+00   0.0000000e+00   0.0000000e+00   0.0000000e+00   0.0000000e+00   0.0000000e+00   0.0000000e+00   0.0000000e+00   0.0000000e+00   0.0000000e+00   0.0000000e+00   0.0000000e+00   0.0000000e+00   0.0000000e+00   0.0000000e+00   0.0000000e+00
   0.0000000e+00   0.0000000e+00   0.0000000e+00   0.0000000e+00   0.0000000e+00   0.0000000e+00   0.0000000e+00   0.0000000e+00   0.0000000e+00   0.0000000e+00   0.0000000e+00   0.0000000e+00   0.0000000e+00   0.0000000e+00   0.0000000e+00   0.0000000e+00
   0.0000000e+00   0.0000000e+00   0.0000000e+00   0.0000000e+00   0.0000000e+00   0.0000000e+00   0.0000000e+00   0.0000000e+00   0.0000000e+00   0.0000000e+00   0.0000000e+00   0.0000000e+00   0.0000000e+00   0.0000000e+00   0.0000000e+00   0.0000000e+00
   0.0000000e+00   0.0000000e+00   0.0000000e+00   0.0000000e+00   0.0000000e+00   0.0000000e+00   0.0000000e+00   0.0000000e+00   0.0000000e+00   0.0000000e+00   0.0000000e+00   0.0000000e+00   0.0000000e+00   0.0000000e+00   0.0000000e+00   0.0000000e+00
   0.0000000e+00   0.0000000e+00   0.0000000e+00   0.0000000e+00   0.0000000e+00   0.0000000e+00   0.0000000e+00   0.0000000e+00   0.0000000e+00   0.0000000e+00   0.0000000e+00   0.0000000e+00   0.0000000e+00   0.0000000e+00   0.0000000e+00   0.0000000e+00
  -6.8108707e-03   2.0416432e-01  -1.1425579e-01   6.0281383e-02   7.8163175e-01   3.4786175e-01   7.0531041e-01   3.2238902e-01  -6.5664841e-01   1.3018206e+00  -4.9858823e-01  -1.1319464e+00  -3.8479602e-02  -1.2324497e+00  -1.1996690e-01  -6.7302763e-01
  -5.9930659e-02  -2.0195362e-01  -2.1858714e-01   2.3771559e-01  -1.2047337e+00  -5.5756787e-01  -9.2898008e-01   3.6698608e-01   2.3691404e-01  -2.0736371e-01  -7.5308482e-01   3.5534556e+00  -1.0013156e+00   2.3074047e+00   2.9692724e-01  -1.9249042e-01
  -2.1612624e-01   6.2738388e-01   3.6287729e-01   4.2273411e-01  -1.2268889e+00  -6.7209276e-02   5.1755754e-01   9.5893043e-01  -1.7803596e+00   3.0748295e-01  -1.4102160e+00   2.2681311e+00  -1.4528591e+00  -4.1753753e+00  -7.5062209e-01  -8.3442293e-03
  -1.4684221e-01  -1.1724068e-01   5.6059730e-01  -1.2917744e-01  -9.8321129e-01  -1.6348996e-01   1.6361747e+00  -1.3299619e+00   5.0392386e-01  -2.1884517e+00  -1.6644262e-01  -2.3516191e+00   6.6988218e-01   7.1933585e-01  -1.8298939e+00   1.5624470e+00
   0.0000000e+00   0.0000000e+00   0.0000000e+00   0.0000000e+00   0.0000000e+00   0.0000000e+00   0.0000000e+00   0.0000000e+00   0.0000000e+00   0.0000000e+00   0.0000000e+00   0.0000000e+00   0.0000000e+00   0.0000000e+00   0.0000000e+00   0.0000000e+00
   0.0000000e+00   0.0000000e+00   0.0000000e+00   0.0000000e+00   0.0000000e+00   0.0000000e+00   0.0000000e+00   0.0000000e+00   0.0000000e+00   0.0000000e+00   0.0000000e+00   0.0000000e+00   0.0000000e+00   0.0000000e+00   0.0000000e+00   0.0000000e+00
   0.0000000e+00   0.0000000e+00   0.0000000e+00   0.0000000e+00   0.0000000e+00   0.0000000e+00   0.0000000e+00   0.0000000e+00   0.0000000e+00   0.0000000e+00   0.0000000e+00   0.0000000e+00   0.0000000e+00   0.0000000e+00   0.0000000e+00   0.0000000e+00
   0.0000000e+00   0.0000000e+00   0.0000000e+00   0.0000000e+00   0.0000000e+00   0.0000000e+00   0.0000000e+00   0.0000000e+00   0.0000000e+00   0.0000000e+00   0.0000000e+00   0.0000000e+00   0.0000000e+00   0.0000000e+00   0.0000000e+00   0.0000000e+00
   0.0000000e+00   0.0000000e+00   0.0000000e+00   0.0000000e+00   0.0000000e+00   0.0000000e+00   0.0000000e+00   0.0000000e+00   0.0000000e+00   0.0000000e+00   0.0000000e+00   0.0000000e+00   0.0000000e+00   0.0000000e+00   0.0000000e+00   0.0000000e+00
   0.0000000e+00   0.0000000e+00   0.0000000e+00   0.0000000e+00   0.0000000e+00   0.0000000e+00   0.0000000e+00   0.0000000e+00   0.0000000e+00   0.0000000e+00   0.0000000e+00   0.0000000e+00   0.0000000e+00   0.0000000e+00   0.0000000e+00   0.0000000e+00
   3.0576189e-02   6.8289378e-02   2.1770772e-02  -4.4004444e-01   6.5335664e-01   4.3070675e-02  -5.8358957e-02   3.6813158e-01   4.4876170e-02   9.1417241e-01   1.3477832e+00  -1.8501462e-01   1.3033310e+00   8.5131866e-01   5.4866321e-01   1.0086092e+00
  -7.8512796e-02  -3.4631738e-02  -5.9398491e-02  -1.6732380e-01  -6.4607642e-01  -4.2813247e-01  -1.7757759e-01  -2.7195102e-01   7.6496030e-02   2.3008440e-01  -7.0716796e-01   6.1834037e-01   3.4620305e-01  -9.1848246e-01   9.9763044e-01   1.5981551e+00
  -9.4688860e-02   2.8800404e-01   1.0962181e-01   3.2868678e-01  -6.8990338e-01   2.0429509e-01  -6.8783547e-02   5.2981171e-01  -7.1112438e-01   1.8883928e-01  -9.0084253e-01   1.3283286e+00  -4.0441446e-01  -9.9620934e-01  -9.9924671e-01  -3.8061155e-01
  -8.8251269e-02   5.4314851e-02   2.0635009e-01  -1.0117851e-01   2.5599570e-01   3.0275429e-01   1.0777982e+00  -5.3124363e-02  -8.0418574e-02  -3.9373103e-01   6.8907754e-01  -3.5162884e-01  -2.9053073e-01  -1.5131484e+00   1.2974057e+00   1.4411819e+00
   0.0000000e+00   0.0000000e+00   0.0000000e+00   0.0000000e+00   0.0000000e+00   0.0000000e+00   0.0000000e+00   0.0000000e+00   0.0000000e+00   0.0000000e+00   0.0000000e+00   0.0000000e+00   0.0000000e+00   0.0000000e+00   0.0000000e+00   0.0000000e+00
   0.0000000e+00   0.0000000e+00   0.0000000e+00   0.0000000e+00   0.0000000e+00   0.0000000e+00   0.0000000e+00   0.0000000e+00   0.0000000e+00   0.0000000e+00   0.0000000e+00   0.0000000e+00   0.0000000e+00   0.0000000e+00   0.0000000e+00   0.0000000e+00
   0.0000000e+00   0.0000000e+00   0.0000000e+00   0.0000000e+00   0.0000000e+00   0.0000000e+00   0.0000000e+00   0.0000000e+00   0.0000000e+00   0.0000000e+00   0.0000000e+00   0.0000000e+00   0.0000000e+00   0.0000000e+00   0.0000000e+00   0.0000000e+00
   0.0000000e+00   0.0000000e+00   0.0000000e+00   0.0000000e+00   0.0000000e+00   0.0000000e+00   0.0000000e+00   0.0000000e+00   0.0000000e+00   0.0000000e+00   0.0000000e+00   0.0000000e+00   0.0000000e+00   0.0000000e+00   0.0000000e+00   0.0000000e+00
   0.0000000e+00   0.0000000e+00   0.0000000e+00   0.0000000e+00   0.0000000e+00   0.0000000e+00   0.0000000e+00   0.0000000e+00   0.0000000e+00   0.0000000e+00   0.0000000e+00   0.0000000e+00   0.0000000e+00   0.0000000e+00   0.0000000e+00   0.0000000e+00
   0.0000000e+00   0.0000000e+00   0.0000000e+00   0.0000000e+00   0.0000000e+00   0.0000000e+00   0.0000000e+00   0.0000000e+00   0.0000000e+00   0.0000000e+00   0.0000000e+00   0.0000000e+00   0.0000000e+00   0.0000000e+00   0.0000000e+00   0.0000000e+00
   5.2545726e-02  -5.7665979e-02   9.1172855e-02  -5.5959539e-01   3.8895493e-01  -1.4996509e-01  -5.5840682e-01   2.4256835e-01   5.9384335e-01   3.3626325e-01   2.0124719e+00   3.0527738e-01   1.6211498e+00   2.1776228e+00   5.9258564e-01   1.5242852e+00
  -7.7907733e-02   5.9753852e-02   1.4580331e-02  -3.1923538e-01  -2.3229901e-01  -2.4333049e-01   3.5303480e-01  -6.3309285e-01  -2.6741518e-02   4.2922225e-01  -6.8221944e-01  -1.3699574e+00   1.0683802e+00  -2.7980198e+00   1.0972395e+00   2.1865050e+00
  -1.3177801e-02   5.0728386e-02  -6.2096329e-02   2.5023923e-01  -2.5299331e-01   3.7204756e-01  -4.5588471e-01   1.9281813e-01   8.5655944e-02   1.0987527e-01  -5.2899498e-01   5.2363912e-01   3.2562208e-01   1.0424306e+00  -9.9490271e-01  -4.4351024e-01
  -3.0992207e-02   1.3640841e-01  -5.4413756e-02  -2.7372106e-02   9.9449325e-01   5.8546228e-01   5.2691988e-01   7.4670318e-01  -4.5029995e-01   7.0394304e-01   1.1529770e+00   1.0736402e+00  -8.4125600e-01  -2.3386380e+00   2.8308491e+00   8.2314313e-01
   0.0000000e+00   0.0000000e+00   0.0000000e+00   0.0000000e+00   0.0000000e+00   0.0000000e+00   0.0000000e+00   0.0000000e+00   0.0000000e+00   0.0000000e+00   0.0000000e+00   0.0000000e+00   0.0000000e+00   0.0000000e+00   0.0000000e+00   0.0000000e+00
   0.0000000e+00   0.0000000e+00   0.0000000e+00   0.0000000e+00   0.0000000e+00   0.0000000e+00   0.0000000e+00   0.0000000e+00   0.0000000e+00   0.0000000e+00   0.0000000e+00   0.0000000e+00   0.0000000e+00   0.0000000e+00   0.0000000e+00   0.0000000e+00
   0.0000000e+00   0.0000000e+00   0.0000000e+00   0.0000000e+00   0.0000000e+00   0.0000000e+00   0.0000000e+00   0.0000000e+00   0.0000000e+00   0.0000000e+00   0.0000000e+00   0.0000000e+00   0.0000000e+00   0.0000000e+00   0.0000000e+00   0.0000000e+00
   0.0000000e+00   0.0000000e+00   0.0000000e+00   0.0000000e+00   0.0000000e+00   0.0000000e+00   0.0000000e+00   0.0000000e+00   0.0000000e+00   0.0000000e+00   0.0000000e+00   0.0000000e+00   0.0000000e+00   0.0000000e+00   0.0000000e+00   0.0000000e+00
   0.0000000e+00   0.0000000e+00   0.0000000e+00   0.0000000e+00   0.0000000e+00   0.0000000e+00   0.0000000e+00   0.0000000e+00   0.0000000e+00   0.0000000e+00   0.0000000e+00   0.0000000e+00   0.0000000e+00   0.0000000e+00   0.0000000e+00   0.0000000e+00
   0.0000000e+00   0.0000000e+00   0.0000000e+00   0.0000000e+00   0.0000000e+00   0.0000000e+00   0.0000000e+00   0.0000000e+00   0.0000000e+00   0.0000000e+00   0.0000000e+00   0.0000000e+00   0.0000000e+00   0.0000000e+00   0.0000000e+00   0.0000000e+00
   5.8677405e-02  -1.4883219e-01   1.1588495e-01  -4.4685508e-01   9.0793090e-02  -2.5188525e-01  -8.1128859e-01   5.6356087e-02   9.2247955e-01  -2.5190670e-01   1.8886706e+00   5.0155478e-01   1.3036754e+00   2.7522246e+00   3.4193775e-01   1.3598767e+00
  -6.4761325e-02   1.0559958e-01   3.0585569e-02  -3.1206841e-01   6.7462124e-02  -4.1486275e-02   6.9071183e-01  -7.6334610e-01  -1.1247239e-01   4.8894961e-01  -6.2697434e-01  -2.5245187e+00   1.3540687e+00  -3.6216156e+00   8.4733795e-01   2.0039899e+00
   3.5894137e-02  -9.8985390e-02  -1.6655601e-01   1.8013831e-01   9.3872722e-02   4.5265407e-01  -6.7266601e-01  -4.3887500e-02   6.4069617e-01   7.2047977e-02  -2.3982455e-01  -1.1401224e-01   8.0800683e-01   2.1465148e+00  -8.0070716e-01  -3.1275296e-01
   1.8495416e-02   1.5226085e-01  -2.2549014e-01   5.6358263e-02   1.3294411e+00   7.1280982e-01   3.1239046e-02   1.1447331e+00  -6.3843348e-01   1.2495857e+00   1.2959290e+00   1.9379952e+00  -1.0585993e+00  -2.1845502e+00   3.2023516e+00   2.8549028e-02
   0.0000000e+00   0.0000000e+00   0.0000000e+00   0.0000000e+00   0.0000000e+00   0.0000000e+00   0.0000000e+00   0.0000000e+00   0.0000000e+00   0.0000000e+00   0.0000000e+00   0.0000000e+00   0.0000000e+00   0.0000000e+00   0.0000000e+00   0.0000000e+00
   0.0000000e+00   0.0000000e+00   0.0000000e+00   0.0000000e+00   0.0000000e+00   0.0000000e+00   0.0000000e+00   0.0000000e+00   0.0000000e+00   0.0000000e+00   0.0000000e+00   0.0000000e+00   0.0000000e+00   0.0000000e+00   0.0000000e+00   0.0000000e+00
   0.0000000e+00   0.0000000e+00   0.0000000e+00   0.0000000e+00   0.0000000e+00   0.0000000e+00   0.0000000e+00   0.0000000e+00   0.0000000e+00   0.0000000e+00   0.0000000e+00   0.0000000e+00   0.0000000e+00   0.0000000e+00   0.0000000e+00   0.0000000e+00
   0.0000000e+00   0.0000000e+00   0.0000000e+00   0.0000000e+00   0.0000000e+00   0.0000000e+00   0.0000000e+00   0.0000000e+00   0.0000000e+00   0.0000000e+00   0.0000000e+00   0.0000000e+00   0.0000000e+00   0.0000000e+00   0.0000000e+00   0.0000000e+00
   0.0000000e+00   0.0000000e+00   0.0000000e+00   0.0000000e+00   0.0000000e+00   0.0000000e+00   0.0000000e+00   0.0000000e+00   0.0000000e+00   0.0000000e+00   0.0000000e+00   0.0000000e+00   0.0000000e+00   0.0000000e+00   0.0000000e+00   0.0000000e+00
   0.0000000e+00   0.0000000e+00   0.0000000e+00   0.0000000e+00   0.0000000e+00   0.0000000e+00   0.0000000e+00   0.0000000e+00   0.0000000e+00   0.0000000e+00   0.0000000e+00   0.0000000e+00   0.0000000e+00   0.0000000e+00   0.0000000e+00   0.0000000e+00
   5.0584515e-02  -1.9209214e-01   1.1462159e-01  -2.3034049e-01  -1.6705365e-01  -2.8874527e-01  -8.5386313e-01  -1.1216422e-01   1.0144329e+00  -7.2094801e-01   1.3284496e+00   5.3525752e-01   6.8654833e-01   2.6724120e+00   4.5108425e-02   9.0307453e-01
  -4.4843367e-02   1.2229166e-01   1.2840601e-02  -2.2724047e-01   2.8032995e-01   1.4492510e-01   8.6503732e-01  -7.1494634e-01  -1.9690102e-01   4.8672780e-01  -5.0289203e-01  -2.9843706e+00   1.3680077e+00  -3.6596207e+00   4.5491084e-01   1.4109947e+00
   6.0475410e-02  -1.7926148e-01  -2.1856425e-01   1.1776458e-01   3.5414107e-01   4.6399517e-01  -7.5460309e-01  -1.8622248e-01   9.9437116e-01   6.3382357e-02   2.5056845e-04  -5.7560622e-01   1.0996784e+00   2.5464656e+00  -4.9821576e-01  -1.0129373e-01
   5.5534172e-02   1.2459823e-01  -3.1510399e-01   1.2205833e-01   1.3631961e+00   7.1566722e-01  -3.7291327e-01   1.2307722e+00  -6.8374595e-01   1.3899252e+00   1.2006554e+00   2.3020692e+00  -1.0226990e+00  -1.4507329e+00   2.8162630e+00  -6.9723328e-01
   0.0000000e+00   0.0000000e+00   0.0000000e+00   0.0000000e+00   0.0000000e+00   0.0000000e+00   0.0000000e+00   0.0000000e+00   0.0000000e+00   0.0000000e+00   0.0000000e+00   0.0000000e+00   0.0000000e+00   0.0000000e+00   0.0000000e+00   0.0000000e+00
   0.0000000e+00   0.0000000e+00   0.0000000e+00   0.0000000e+00   0.0000000e+00   0.0000000e+00   0.0000000e+00   0.0000000e+00   0.0000000e+00   0.0000000e+00   0.0000000e+00   0.0000000e+00   0.0000000e+00   0.0000000e+00   0.0000000e+00   0.0000000e+00
   0.0000000e+00   0.0000000e+00   0.0000000e+00   0.0000000e+00   0.0000000e+00   0.0000000e+00   0.0000000e+00   0.0000000e+00   0.0000000e+00   0.0000000e+00   0.0000000e+00   0.0000000e+00   0.0000000e+00   0.0000000e+00   0.0000000e+00   0.0000000e+00
   0.0000000e+00   0.0000000e+00   0.0000000e+00   0.0000000e+00   0.0000000e+00   0.0000000e+00   0.0000000e+00   0.0000000e+00   0.0000000e+00   0.0000000e+00   0.0000000e+00   0.0000000e+00   0.0000000e+00   0.0000000e+00   0.0000000e+00   0.0000000e+00
   0.0000000e+00   0.0000000e+00   0.0000000e+00   0.0000000e+00   0.0000000e+00   0.0000000e+00   0.0000000e+00   0.0000000e+00   0.0000000e+00   0.0000000e+00   0.0000000e+00   0.0000000e+00   0.0000000e+00   0.0000000e+00   0.0000000e+00   0.0000000e+00
   0.0000000e+00   0.0000000e+00   0.0000000e+00   0.0000000e+00   0.0000000e+00   0.0000000e+00   0.0000000e+00   0.0000000e+00   0.0000000e+00   0.0000000e+00   0.0000000e+00   0.0000000e+00   0.0000000e+00   0.0000000e+00   0.0000000e+00   0.0000000e+00
   3.1753325e-02  -1.8653773e-01   1.0155515e-01  -7.9149996e-03  -3.4225673e-01  -2.8645733e-01  -7.3751274e-01  -2.1763431e-01   8.9938310e-01  -9.9879966e-01   6.1855915e-01   5.0101685e-01   2.8004327e-02   2.1009355e+00  -1.4510012e-01   4.2557043e-01
  -2.2625652e-02   1.2309618e-01  -1.9014413e-02  -1.2679586e-01   4.2664830e-01   2.9210516e-01   9.0560124e-01  -5.4322721e-01  -2.7616857e-01   4.7355690e-01  -2.9188733e-01  -2.9051849e+00   1.2383978e+00  -3.1531244e+00   6.8965719e-02   6.8016569e-01
   6.8161460e-02  -2.0920905e-01  -2.3227641e-01   6.6612331e-02   5.2867819e-01   4.2435120e-01  -7.3867587e-01  -2.5066369e-01   1.1889798e+00   6.4864757e-02   2.0630183e-01  -8.7223469e-01   1.2455623e+00   2.4705883e+00  -1.7053172e-01   9.5720056e-02
   7.7596544e-02   7.3436147e-02  -3.3552205e-01   1.5223651e-01   1.1940526e+00   6.2611530e-01  -6.6294719e-01   1.0995115e+00  -6.2519639e-01   1.2613447e+00   9.5157851e-01   2.2600518e+00  -8.1467619e-01  -4.8046529e-01   2.0215484e+00  -1.1957228e+00
   0.0000000e+00   0.0000000e+00   0.0000000e+00   0.0000000e+00   0.0000000e+00   0.0000000e+00   0.0000000e+00   0.0000000e+00   0.0000000e+00   0.0000000e+00   0.0000000e+00   0.0000000e+00   0.0000000e+00   0.0000000e+00   0.0000000e+00   0.0000000e+00
   0.0000000e+00   0.0000000e+00   0.0000000e+00   0.0000000e+00   0.0000000e+00   0.0000000e+00   0.0000000e+00   0.0000000e+00   0.0000000e+00   0.0000000e+00   0.0000000e+00   0.0000000e+00   0.0000000e+00   0.0000000e+00   0.0000000e+00   0.0000000e+00
   0.0000000e+00   0.0000000e+00   0.0000000e+00   0.0000000e+00   0.0000000e+00   0.0000000e+00   0.0000000e+00   0.0000000e+00   0.0000000e+00   0.0000000e+00   0.0000000e+00   0.0000000e+00   0.0000000e+00   0.0000000e+00   0.0000000e+00   0.0000000e+00
   0.0000000e+00   0.0000000e+00   0.0000000e+00   0.0000000e+00   0.0000000e+00   0.0000000e+00   0.0000000e+00   0.0000000e+00   0.0000000e+00   0.0000000e+00   0.0000000e+00   0.0000000e+00   0.0000000e+00   0.0000000e+00   0.0000000e+00   0.0000000e+00
   0.0000000e+00   0.0000000e+00   0.0000000e+00   0.0000000e+00   0.0000000e+00   0.0000000e+00   0.0000000e+00   0.0000000e+00   0.0000000e+00   0.0000000e+00   0.0000000e+00   0.0000000e+00   0.0000000e+00   0.0000000e+00   0.0000000e+00   0.0000000e+00
   0.0000000e+00   0.0000000e+00   0.0000000e+00   0.0000000e+00   0.0000000e+00   0.0000000e+00   0.0000000e+00   0.0000000e+00   0.0000000e+00   0.0000000e+00   0.0000000e+00   0.0000000e+00   0.0000000e+00   0.0000000e+00   0.0000000e+00   0.0000000e+00
   6.9933153e-03  -1.4160882e-01   8.5866319e-02   1.5851015e-01  -4.2239706e-01  -2.6630246e-01  -5.2095619e-01  -2.4479033e-01   6.3983154e-01  -1.0684226e+00  -3.4244538e-02   4.5616030e-01  -5.0221986e-01   1.2343299e+00  -1.6881302e-01   8.3451402e-02
  -1.1708682e-03   1.1540021e-01  -5.0739623e-02  -5.0123878e-02   5.1931726e-01   3.8658215e-01   8.4099355e-01  -3.0355164e-01  -3.3358075e-01   4.7389148e-01   1.3617789e-04  -2.4487084e+00   1.0518544e+00  -2.3096919e+00  -2.2248260e-01  -6.8204807e-03
   6.5537816e-02  -2.0658278e-01  -2.2020515e-01   3.1311804e-02   6.1949211e-01   3.5123236e-01  -6.5912260e-01  -2.5983763e-01   1.2625440e+00   5.7047193e-02   3.8000955e-01  -1.0300624e+00   1.2814349e+00   2.1231279e+00   1.1258496e-01   2.1180113e-01
   8.4355702e-02   1.4707655e-02  -3.0212140e-01   1.4086605e-01   9.0904850e-01   4.7596304e-01  -8.3062055e-01   8.4145643e-01  -4.9795794e-01   9.8065684e-01   6.2541878e-01   1.9249831e+00  -5.1283167e-01   4.5878681e-01   1.0936642e+00  -1.3954068e+00
   0.0000000e+00   0.0000000e+00   0.0000000e+00   0.0000000e+00   0.0000000e+00   0.0000000e+00   0.0000000e+00   0.0000000e+00   0.0000000e+00   0.0000000e+00   0.0000000e+00   0.0000000e+00   0.0000000e+00   0.0000000e+00   0.0000000e+00   0.0000000e+00
   0.0000000e+00   0.0000000e+00   0.0000000e+00   0.0000000e+00   0.0000000e+00   0.0000000e+00   0.0000000e+00   0.0000000e+00   0.0000000e+00   0.0000000e+00   0.0000000e+00   0.0000000e+00   0.0000000e+00   0.0000000e+00   0.0000000e+00   0.0000000e+00
   0.0000000e+00   0.0000000e+00   0.0000000e+00   0.0000000e+00   0.0000000e+00   0.0000000e+00   0.0000000e+00   0.0000000e+00   0.0000000e+00   0.0000000e+00   0.0000000e+00   0.0000000e+00   0.0000000e+00   0.0000000e+00   0.0000000e+00   0.0000000e+00
   0.0000000e+00   0.0000000e+00   0.0000000e+00   0.0000000e+00   0.0000000e+00   0.0000000e+00   0.0000000e+00   0.0000000e+00   0.0000000e+00   0.0000000e+00   0.0000000e+00   0.0000000e+00   0.0000000e+00   0.0000000e+00   0.0000000e+00   0.0000000e+00
   0.0000000e+00   0.0000000e+00   0.0000000e+00   0.0000000e+00   0.0000000e+00   0.0000000e+00   0.0000000e+00   0.0000000e+00   0.0000000e+00   0.0000000e+00   0.0000000e+00   0.0000000e+00   0.0000000e+00   0.0000000e+00   0.0000000e+00   0.0000000e+00
   0.0000000e+00   0.0000000e+00   0.0000000e+00   0.0000000e+00   0.0000000e+00   0.0000000e+00   0.0000000e+00   0.0000000e+00   0.0000000e+00   0.0000000e+00   0.0000000e+00   0.0000000e+00   0.0000000e+00   0.0000000e+00   0.0000000e+00   0.0000000e+00
  -1.8381607e-02  -7.3489042e-02   7.2132371e-02   2.4239240e-01  -4.1872616e-01  -2.4225298e-01  -2.6272476e-01  -2.0248886e-01   3.1338977e-01  -9.5766545e-01  -5.0683817e-01   4.2500325e-01  -8.2046753e-01   2.7071086e-01  -4.1899957e-02  -6.6923445e-02
   1.7714102e-02   1.0202851e-01  -7.3550707e-02  -1.4405315e-02   5.6519671e-01   4.2537124e-01   6.9836529e-01  -4.7651812e-02  -3.4876755e-01   4.8991981e-01   3.4460697e-01  -1.7717777e+00   8.5568525e-01  -1.3027633e+00  -3.8589247e-01  -5.5073754e-01
   5.7757912e-02  -1.8606306e-01  -1.9254967e-01   1.4884415e-02   6.3242884e-01   2.6014644e-01  -5.4444275e-01  -2.3794914e-01   1.2451242e+00   2.5598071e-02   5.1586134e-01  -1.0840321e+00   1.2367975e+00   1.6690045e+00   3.0515591e-01   2.1431197e-01
   7.7423802e-02  -4.0211433e-02  -2.3203360e-01   9.2598070e-02   5.7939301e-01   2.9521941e-01  -8.8099510e-01   5.3545896e-01  -3.3192359e-01   6.3959216e-01   2.8415447e-01   1.4143372e+00  -1.8799922e-01   1.1841742e+00   2.2738772e-01  -1.3010099e+00
   0.0000000e+00   0.0000000e+00   0.0000000e+00   0.0000000e+00   0.0000000e+00   0.0000000e+00   0.0000000e+00   0.0000000e+00   0.0000000e+00   0.0000000e+00   0.0000000e+00   0.0000000e+00   0.0000000e+00   0.0000000e+00   0.0000000e+00   0.0000000e+00
   0.0000000e+00   0.0000000e+00   0.0000000e+00   0.0000000e+00   0.0000000e+00   0.0000000e+00   0.0000000e+00   0.0000000e+00   0.0000000e+00   0.0000000e+00   0.0000000e+00   0.0000000e+00   0.0000000e+00   0.0000000e+00   0.0000000e+00   0.0000000e+00
   0.0000000e+00   0.0000000e+00   0.0000000e+00   0.0000000e+00   0.0000000e+00   0.0000000e+00   0.0000000e+00   0.0000000e+00   0.0000000e+00   0.0000000e+00   0.0000000e+00   0.0000000e+00   0.0000000e+00   0.0000000e+00   0.0000000e+00   0.0000000e+00
   0.0000000e+00   0.0000000e+00   0.0000000e+00   0.0000000e+00   0.0000000e+00   0.0000000e+00   0.0000000e+00   0.0000000e+00   0.0000000e+00   0.0000000e+00   0.0000000e+00   0.0000000e+00   0.0000000e+00   0.0000000e+00   0.0000000e+00   0.0000000e+00
   0.0000000e+00   0.0000000e+00   0.0000000e+00   0.0000000e+00   0.0000000e+00   0.0000000e+00   0.0000000e+00   0.0000000e+00   0.0000000e+00   0.0000000e+00   0.0000000e+00   0.0000000e+00   0.0000000e+00   0.0000000e+00   0.0000000e+00   0.0000000e+00
   0.0000000e+00   0.0000000e+00   0.0000000e+00   0.0000000e+00   0.0000000e+00   0.0000000e+00   0.0000000e+00   0.0000000e+00   0.0000000e+00   0.0000000e+00   0.0000000e+00   0.0000000e+00   0.0000000e+00   0.0000000e+00   0.0000000e+00   0.0000000e+00
  -3.9467573e-02  -6.4680975e-04   6.1361239e-02   2.4671484e-01  -3.5718608e-01  -2.2040741e-01  -1.4285271e-02  -1.1557396e-01  -5.4009766e-03  -7.2381639e-01  -7.5268002e-01   4.0686217e-01  -9.1532521e-01  -6.1812073e-01   1.7100312e-01  -4.2633243e-02
   3.3151260e-02   8.3166934e-02  -8.3523760e-02  -1.8359435e-02   5.6784002e-01   4.1461827e-01   5.0332441e-01   1.8019791e-01  -3.0653779e-01   5.0886916e-01   6.9612954e-01  -1.0159307e+00   6.6607360e-01  -2.7316073e-01  -4.2872112e-01  -9.1793277e-01
   4.8387424e-02  -1.5835881e-01  -1.5691605e-01   1.6831280e-02   5.7839770e-01   1.6356981e-01  -4.1584971e-01  -2.0673668e-01   1.1579456e+00  -3.5131518e-02   6.0710028e-01  -1.0713627e+00   1.1369256e+00   1.2260936e+00   3.8955378e-01   1.0361018e-01
   5.9851854e-02  -8.4208441e-02  -1.4255247e-01   2.0299615e-02   2.5856785e-01   1.1053901e-01  -8.3005635e-01   2.4351705e-01  -1.5194431e-01   3.0319406e-01  -2.8790369e-02   8.3739412e-01   1.0141455e-01   1.5964543e+00  -4.6003203e-01  -9.7464498e-01
   0.0000000e+00   0.0000000e+00   0.0000000e+00   0.0000000e+00   0.0000000e+00   0.0000000e+00   0.0000000e+00   0.0000000e+00   0.0000000e+00   0.0000000e+00   0.0000000e+00   0.0000000e+00   0.0000000e+00   0.0000000e+00   0.0000000e+00   0.0000000e+00
   0.0000000e+00   0.0000000e+00   0.0000000e+00   0.0000000e+00   0.0000000e+00   0.0000000e+00   0.0000000e+00   0.0000000e+00   0.0000000e+00   0.0000000e+00   0.0000000e+00   0.0000000e+00   0.0000000e+00   0.0000000e+00   0.0000000e+00   0.0000000e+00
   0.0000000e+00   0.0000000e+00   0.0000000e+00   0.0000000e+00   0.0000000e+00   0.0000000e+00   0.0000000e+00   0.0000000e+00   0.0000000e+00   0.0000000e+00   0.0000000e+00   0.0000000e+00   0.0000000e+00   0.0000000e+00   0.0000000e+00   0.0000000e+00
   0.0000000e+00   0.0000000e+00   0.0000000e+00   0.0000000e+00   0.0000000e+00   0.0000000e+00   0.0000000e+00   0.0000000e+00   0.0000000e+00   0.0000000e+00   0.0000000e+00   0.0000000e+00   0.0000000e+00   0.0000000e+00   0.0000000e+00   0.0000000e+00
   0.0000000e+00   0.0000000e+00   0.0000000e+00   0.0000000e+00   0.0000000e+00   0.0000000e+00   0.0000000e+00   0.0000000e+00   0.0000000e+00   0.0000000e+00   0.0000000e+00   0.0000000e+00   0.0000000e+00   0.0000000e+00   0.0000000e+00   0.0000000e+00
   0.0000000e+00   0.0000000e+00   0.0000000e+00   0.0000000e+00   0.0000000e+00   0.0000000e+00   0.0000000e+00   0.0000000e+00   0.0000000e+00   0.0000000e+00   0.0000000e+00   0.0000000e+00   0.0000000e+00   0.0000000e+00   0.0000000e+00   0.0000000e+00
  -5.2592997e-02   6.0480842e-02   5.2373622e-02   1.9444260e-01  -2.6873084e-01  -2.0036083e-01   1.8534041e-01  -1.5828048e-02  -2.5988322e-01  -4.3610256e-01  -7.8613807e-01   3.8621082e-01  -8.2626656e-01  -1.3065385e+00   3.8696167e-01   9.6338299e-02
   4.4802542e-02   5.8348502e-02  -8.0549033e-02  -4.8287083e-02   5.3059299e-01   3.6699774e-01   2.7991704e-01   3.4663895e-01  -2.0336845e-01   5.1156481e-01   1.0016232e+00  -2.9864440e-01   4.7976436e-01   6.6871952e-01  -3.8262669e-01  -1.1193292e+00
   3.9499960e-02  -1.3014979e-01  -1.1842469e-01   3.2438630e-02   4.7304142e-01   7.0350300e-02  -2.8713399e-01  -1.8249670e-01   1.0149495e+00  -1.2097154e-01   6.5031331e-01  -1.0257837e+00   1.0036712e+00   8.6475664e-01   3.7503295e-01  -9.3134842e-02
   3.5497715e-02  -1.1363041e-01  -4.9530854e-02  -5.8621409e-02  -1.7282734e-02  -5.6254141e-02  -7.0144243e-01   8.1473701e-03   2.1108346e-02   1.1663209e-02  -2.8893027e-01   2.8551187e-01   3.1384840e-01   1.6708329e+00  -9.1762130e-01  -5.1251839e-01
   0.0000000e+00   0.0000000e+00   0.0000000e+00   0.0000000e+00   0.0000000e+00   0.0000000e+00   0.0000000e+00   0.0000000e+00   0.0000000e+00   0.0000000e+00   0.0000000e+00   0.0000000e+00   0.0000000e+00   0.0000000e+00   0.0000000e+00   0.0000000e+00
   0.0000000e+00   0.0000000e+00   0.0000000e+00   0.0000000e+00   0.0000000e+00   0.0000000e+00   0.0000000e+00   0.0000000e+00   0.0000000e+00   0.0000000e+00   0.0000000e+00   0.0000000e+00   0.0000000e+00   0.0000000e+00   0.0000000e+00   0.0000000e+00
   0.0000000e+00   0.0000000e+00   0.0000000e+00   0.0000000e+00   0.0000000e+00   0.0000000e+00   0.0000000e+00   0.0000000e+00   0.0000000e+00   0.0000000e+00   0.0000000e+00   0.0000000e+00   0.0000000e+00   0.0000000e+00   0.0000000e+00   0.0000000e+00
   0.0000000e+00   0.0000000e+00   0.0000000e+00   0.0000000e+00   0.0000000e+00   0.0000000e+00   0.0000000e+00   0.0000000e+00   0.0000000e+00   0.0000000e+00   0.0000000e+00   0.0000000e+00   0.0000000e+00   0.0000000e+00   0.0000000e+00   0.0000000e+00
   0.0000000e+00   0.0000000e+00   0.0000000e+00   0.0000000e+00   0.0000000e+00   0.0000000e+00   0.0000000e+00   0.0000000e+00   0.0000000e+00   0.0000000e+00   0.0000000e+00   0.0000000e+00   0.0000000e+00   0.0000000e+00   0.0000000e+00   0.0000000e+00
   0.0000000e+00   0.0000000e+00   0.0000000e+00   0.0000000e+00   0.0000000e+00   0.0000000e+00   0.0000000e+00   0.0000000e+00   0.0000000e+00   0.0000000e+00   0.0000000e+00   0.0000000e+00   0.0000000e+00   0.0000000e+00   0.0000000e+00   0.0000000e+00
  -5.5884650e-02   9.8776054e-02   4.3205547e-02   1.1741937e-01  -1.8092348e-01  -1.7792085e-01   3.1284934e-01   6.6629778e-02  -4.1992835e-01  -1.5945280e-01  -6.6153420e-01   3.4318220e-01  -6.1957429e-01  -1.7248789e+00   5.3226577e-01   2.7593038e-01
   5.2525120e-02   2.8011345e-02  -6.7073862e-02  -8.5058377e-02   4.5911448e-01   2.9837896e-01   5.0484795e-02   4.3175842e-01  -5.0123034e-02   4.8042321e-01   1.2109038e+00   2.9291125e-01   2.8640454e-01   1.4409982e+00  -2.8715005e-01  -1.1894769e+00
   3.1967015e-02  -1.0471518e-01  -8.0132384e-02   5.3385284e-02   3.3511874e-01  -1.4323094e-02  -1.6568447e-01  -1.7450248e-01   8.2586521e-01  -2.1915751e-01   6.4797548e-01  -9.7323808e-01   8.5507355e-01   6.1334987e-01   2.9125322e-01  -3.3181860e-01
   8.3777903e-03  -1.2728597e-01   3.4006521e-02  -1.2639940e-01  -2.2734445e-01  -1.8938743e-01  -5.2277825e-01  -1.4772753e-01   1.6938149e-01  -2.1529235e-01  -4.8811905e-01  -1.7407367e-01   4.2747774e-01   1.4419599e+00  -1.1445138e+00  -2.1105016e-02
   0.0000000e+00   0.0000000e+00   0.0000000e+00   0.0000000e+00   0.0000000e+00   0.0000000e+00   0.0000000e+00   0.0000000e+00   0.0000000e+00   0.0000000e+00   0.0000000e+00   0.0000000e+00   0.0000000e+00   0.0000000e+00   0.0000000e+00   0.0000000e+00
   0.0000000e+00   0.0000000e+00   0.0000000e+00   0.0000000e+00   0.0000000e+00   0.0000000e+00   0.0000000e+00   0.0000000e+00   0.0000000e+00   0.0000000e+00   0.0000000e+00   0.0000000e+00   0.0000000e+00   0.0000000e+00   0.0000000e+00   0.0000000e+00
   0.0000000e+00   0.0000000e+00   0.0000000e+00   0.0000000e+00   0.0000000e+00   0.0000000e+00   0.0000000e+00   0.0000000e+00   0.0000000e+00   0.0000000e+00   0.0000000e+00   0.0000000e+00   0.0000000e+00   0.0000000e+00   0.0000000e+00   0.0000000e+00
   0.0000000e+00   0.0000000e+00   0.0000000e+00   0.0000000e+00   0.0000000e+00   0.0000000e+00   0.0000000e+00   0.0000000e+00   0.0000000e+00   0.0000000e+00   0.0000000e+00   0.0000000e+00   0.0000000e+00   0.0000000e+00   0.0000000e+00   0.0000000e+00
   0.0000000e+00   0.0000000e+00   0.0000000e+00   0.0000000e+00   0.0000000e+00   0.0000000e+00   0.0000000e+00   0.0000000e+00   0.0000000e+00   0.0000000e+00   0.0000000e+00   0.0000000e+00   0.0000000e+00   0.0000000e+00   0.0000000e+00   0.0000000e+00
   0.0000000e+00   0.0000000e+00   0.0000000e+00   0.0000000e+00   0.0000000e+00   0.0000000e+00   0.0000000e+00   0.0000000e+00   0.0000000e+00   0.0000000e+00   0.0000000e+00   0.0000000e+00   0.0000000e+00   0.0000000e+00   0.0000000e+00   0.0000000e+00
  -4.9471198e-02   1.1011134e-01   3.2246621e-02   4.5964704e-02  -1.1229591e-01  -1.4832331e-01   3.6152598e-01   1.1023162e-01  -4.8321988e-01   5.7753377e-02  -4.5082186e-01   2.6269437e-01  -3.6620980e-01  -1.8590368e+00   5.6184487e-01   4.3052558e-01
   5.6150164e-02  -5.7002699e-03  -4.6864442e-02  -1.1063204e-01   3.6262374e-01   2.2440563e-01  -1.6473308e-01   4.3021263e-01   1.2944576e-01   4.0538656e-01   1.2866242e+00   7.0498712e-01   7.8881270e-02   1.9890551e+00  -1.7702803e-01  -1.1690124e+00
   2.5857997e-02  -8.2976378e-02  -4.3645730e-02   6.9434447e-02   1.8412418e-01  -8.8377513e-02  -5.4269773e-02  -1.8489187e-01   5.9965432e-01  -3.1139969e-01   6.0877592e-01  -9.2949158e-01   7.0425728e-01   4.6781289e-01   1.7871503e-01  -5.6280751e-01
  -1.7894832e-02  -1.2554097e-01   9.8843130e-02  -1.6880451e-01  -3.6327755e-01  -2.7989231e-01  -3.2209313e-01  -2.1875195e-01   2.7785058e-01  -3.7279931e-01  -6.2990110e-01  -5.0079816e-01   4.4073101e-01   9.8562405e-01  -1.1723071e+00   4.0373748e-01
   0.0000000e+00   0.0000000e+00   0.0000000e+00   0.0000000e+00   0.0000000e+00   0.0000000e+00   0.0000000e+00   0.0000000e+00   0.0000000e+00   0.0000000e+00   0.0000000e+00   0.0000000e+00   0.0000000e+00   0.0000000e+00   0.0000000e+00   0.0000000e+00
   0.0000000e+00   0.0000000e+00   0.0000000e+00   0.0000000e+00   0.0000000e+00   0.0000000e+00   0.0000000e+00   0.0000000e+00   0.0000000e+00   0.0000000e+00   0.0000000e+00   0.0000000e+00   0.0000000e+00   0.0000000e+00   0.0000000e+00   0.0000000e+00
   0.0000000e+00   0.0000000e+00   0.0000000e+00   0.0000000e+00   0.0000000e+00   0.0000000e+00   0.0000000e+00   0.0000000e+00   0.0000000e+00   0.0000000e+00   0.0000000e+00   0.0000000e+00   0.0000000e+00   0.0000000e+00   0.0000000e+00   0.0000000e+00
   0.0000000e+00   0.0000000e+00   0.0000000e+00   0.0000000e+00   0.0000000e+00   0.0000000e+00   0.0000000e+00   0.0000000e+00   0.0000000e+00   0.0000000e+00   0.0000000e+00   0.0000000e+00   0.0000000e+00   0.0000000e+00   0.0000000e+00   0.0000000e+00
   0.0000000e+00   0.0000000e+00   0.0000000e+00   0.0000000e+00   0.0000000e+00   0.0000000e+00   0.0000000e+00   0.0000000e+00   0.0000000e+00   0.0000000e+00   0.0000000e+00   0.0000000e+00   0.0000000e+00   0.0000000e+00   0.0000000e+00   0.0000000e+00
   0.0000000e+00   0.0000000e+00   0.0000000e+00   0.0000000e+00   0.0000000e+00   0.0000000e+00   0.0000000e+00   0.0000000e+00   0.0000000e+00   0.0000000e+00   0.0000000e+00   0.0000000e+00   0.0000000e+00   0.0000000e+00   0.0000000e+00   0.0000000e+00
  -3.5295869e-02   9.7222897e-02   1.8928744e-02   1.0876567e-03  -7.0185983e-02  -1.0905450e-01   3.3974026e-01   1.0617203e-01  -4.6976895e-01   1.9030084e-01  -2.2364573e-01   1.4081936e-01  -1.2523986e-01  -1.7414894e+00   4.6770300e-01   5.1661016e-01
   5.5423302e-02  -3.8994293e-02  -2.3962075e-02  -1.1291601e-01   2.5358280e-01   1.5762801e-01  -3.4828943e-01   3.5064384e-01   3.0382068e-01   2.8690926e-01   1.2116793e+00   9.1699632e-01  -1.4025184e-01   2.2847192e+00  -7.5027939e-02  -1.0926092e+00
   2.0859853e-02  -6.4637028e-02  -9.7755700e-03   7.0759346e-02   3.7778079e-02  -1.5186717e-01   4.6872490e-02  -2.0985189e-01   3.4724816e-01  -3.7797756e-01   5.4602672e-01  -8.9974091e-01   5.5835903e-01   4.0320868e-01   7.8424079e-02  -7.4168914e-01
  -4.0511069e-02  -1.0970273e-01   1.4002326e-01  -1.7801710e-01  -4.2620444e-01  -3.2569856e-01  -1.2473544e-01  -2.1356696e-01   3.3513322e-01  -4.6504209e-01  -7.2401250e-01  -6.7997950e-01   3.6999651e-01   3.9960176e-01  -1.0489571e+00   6.9215517e-01
   0.0000000e+00   0.0000000e+00   0.0000000e+00   0.0000000e+00   0.0000000e+00   0.0000000e+00   0.0000000e+00   0.0000000e+00   0.0000000e+00   0.0000000e+00   0.0000000e+00   0.0000000e+00   0.0000000e+00   0.0000000e+00   0.0000000e+00   0.0000000e+00
   0.0000000e+00   0.0000000e+00   0.0000000e+00   0.0000000e+00   0.0000000e+00   0.0000000e+00   0.0000000e+00   0.0000000e+00   0.0000000e+00   0.0000000e+00   0.0000000e+00   0.0000000e+00   0.0000000e+00   0.0000000e+00   0.0000000e+00   0.0000000e+00
   0.0000000e+00   0.0000000e+00   0.0000000e+00   0.0000000e+00   0.0000000e+00   0.0000000e+00   0.0000000e+00   0.0000000e+00   0.0000000e+00   0.0000000e+00   0.0000000e+00   0.0000000e+00   0.0000000e+00   0.0000000e+00   0.0000000e+00   0.0000000e+00
   0.0000000e+00   0.0000000e+00   0.0000000e+00   0.0000000e+00   0.0000000e+00   0.0000000e+00   0.0000000e+00   0.0000000e+00   0.0000000e+00   0.0000000e+00   0.0000000e+00   0.0000000e+00   0.0000000e+00   0.0000000e+00   0.0000000e+00   0.0000000e+00
   0.0000000e+00   0.0000000e+00   0.0000000e+00   0.0000000e+00   0.0000000e+00   0.0000000e+00   0.0000000e+00   0.0000000e+00   0.0000000e+00   0.0000000e+00   0.0000000e+00   0.0000000e+00   0.0000000e+00   0.0000000e+00   0.0000000e+00   0.0000000e+00
   0.0000000e+00   0.0000000e+00   0.0000000e+00   0.0000000e+00   0.0000000e+00   0.0000000e+00   0.0000000e+00   0.0000000e+00   0.0000000e+00   0.0000000e+00   0.0000000e+00   0.0000000e+00   0.0000000e+00   0.0000000e+00   0.0000000e+00   0.0000000e+00
  -1.6588113e-02   6.8023122e-02   3.9141131e-03  -9.4719591e-03  -5.1906707e-02  -6.1552887e-02   2.6741008e-01   5.9445743e-02  -4.1179007e-01   2.3676673e-01  -3.2716207e-02  -1.2421092e-02   6.5279210e-02  -1.4365948e+00   2.7622852e-01   5.1719520e-01
   5.0099880e-02  -6.7218294e-02  -1.9307080e-03  -8.8225264e-02   1.4597607e-01   1.0568463e-01  -4.8645342e-01   2.1333909e-01   4.4102791e-01   1.3582754e-01   9.9272424e-01   9.3805837e-01  -3.5707157e-01   2.3253202e+00   9.3643848e-03  -9.8306692e-01
   1.6634545e-02  -4.9135036e-02   2.0906788e-02   5.0323634e-02  -9.0019558e-02  -2.0576632e-01   1.3807564e-01  -2.4172873e-01   8.2826268e-02  -4.0194188e-01   4.7482148e-01  -8.8001557e-01   4.1820920e-01   3.8521055e-01   2.3007870e-02  -8.3753162e-01
  -5.7666264e-02  -8.1757334e-02   1.5674982e-01  -1.5396607e-01  -4.2402485e-01  -3.3096293e-01   4.8899648e-02  -1.5039847e-01   3.3506971e-01  -5.0032488e-01  -7.8124528e-01  -7.1931330e-01   2.4468363e-01  -2.1420014e-01  -8.2629515e-01   8.0877411e-01
   0.0000000e+00   0.0000000e+00   0.0000000e+00   0.0000000e+00   0.0000000e+00   0.0000000e+00   0.0000000e+00   0.0000000e+00   0.0000000e+00   0.0000000e+00   0.0000000e+00   0.0000000e+00   0.0000000e+00   0.0000000e+00   0.0000000e+00   0.0000000e+00
   0.0000000e+00   0.0000000e+00   0.0000000e+00   0.0000000e+00   0.0000000e+00   0.0000000e+00   0.0000000e+00   0.0000000e+00   0.0000000e+00   0.0000000e+00   0.0000000e+00   0.0000000e+00   0.0000000e+00   0.0000000e+00   0.0000000e+00   0.0000000e+00
   0.0000000e+00   0.0000000e+00   0.0000000e+00   0.0000000e+00   0.0000000e+00   0.0000000e+00   0.0000000e+00   0.0000000e+00   0.0000000e+00   0.0000000e+00   0.0000000e+00   0.0000000e+00   0.0000000e+00   0.0000000e+00   0.0000000e+00   0.0000000e+00
   0.0000000e+00   0.0000000e+00   0.0000000e+00   0.0000000e+00   0.0000000e+00   0.0000000e+00   0.0000000e+00   0.0000000e+00   0.0000000e+00   0.0000000e+00   0.0000000e+00   0.0000000e+00   0.0000000e+00   0.0000000e+00   0.0000000e+00   0.0000000e+00
   0.0000000e+00   0.0000000e+00   0.0000000e+00   0.0000000e+00   0.0000000e+00   0.0000000e+00   0.0000000e+00   0.0000000e+00   0.0000000e+00   0.0000000e+00   0.0000000e+00   0.0000000e+00   0.0000000e+00   0.0000000e+00   0.0000000e+00   0.0000000e+00
   0.0000000e+00   0.0000000e+00   0.0000000e+00   0.0000000e+00   0.0000000e+00   0.0000000e+00   0.0000000e+00   0.0000000e+00   0.0000000e+00   0.0000000e+00   0.0000000e+00   0.0000000e+00   0.0000000e+00   0.0000000e+00   0.0000000e+00   0.0000000e+00
   2.8880426e-03   3.2922845e-02  -1.1145706e-02   8.9255194e-03  -4.8347156e-02  -1.1393235e-02   1.7101974e-01  -1.3238436e-02  -3.4200801e-01   2.1502293e-01   9.3846796e-02  -1.7401671e-01   1.8993787e-01  -1.0235706e+00   3.6785695e-02   4.3854192e-01
   4.0145845e-02  -8.6062673e-02   1.6583283e-02  -4.1165980e-02   5.2742972e-02   7.0789896e-02  -5.7021902e-01   4.6358221e-02   5.1619701e-01  -2.9394073e-02   6.5924594e-01   8.0088113e-01  -5.4896111e-01   2.1318751e+00   7.6556577e-02  -8.5084579e-01
   1.3051021e-02  -3.6216196e-02   4.7700709e-02   5.7301076e-03  -1.9033755e-01  -2.5081717e-01   2.1878377e-01  -2.7156933e-01  -1.7663975e-01  -3.7261150e-01   4.0881338e-01  -8.5996715e-01   2.7920512e-01   3.7990124e-01   3.0981908e-02  -8.3738104e-01
  -6.8560328e-02  -4.4393970e-02   1.5179033e-01  -1.0393115e-01  -3.6927487e-01  -3.0465248e-01   1.8464596e-01  -5.2489600e-02   2.7846175e-01  -4.8757159e-01  -8.0966255e-01  -6.4347067e-01   1.0041175e-01  -7.6464729e-01  -5.5205149e-01   7.5406231e-01
   0.0000000e+00   0.0000000e+00   0.0000000e+00   0.0000000e+00   0.0000000e+00   0.0000000e+00   0.0000000e+00   0.0000000e+00   0.0000000e+00   0.0000000e+00   0.0000000e+00   0.0000000e+00   0.0000000e+00   0.0000000e+00   0.0000000e+00   0.0000000e+00
   0.0000000e+00   0.0000000e+00   0.0000000e+00   0.0000000e+00   0.0000000e+00   0.0000000e+00   0.0000000e+00   0.0000000e+00   0.0000000e+00   0.0000000e+00   0.0000000e+00   0.0000000e+00   0.0000000e+00   0.0000000e+00   0.0000000e+00   0.0000000e+00
   0.0000000e+00   0.0000000e+00   0.0000000e+00   0.0000000e+00   0.0000000e+00   0.0000000e+00   0.0000000e+00   0.0000000e+00   0.0000000e+00   0.0000000e+00   0.0000000e+00   0.0000000e+00   0.0000000e+00   0.0000000e+00   0.0000000e+00   0.0000000e+00
   0.0000000e+00   0.0000000e+00   0.0000000e+00   0.0000000e+00   0.0000000e+00   0.0000000e+00   0.0000000e+00   0.0000000e+00   0.0000000e+00   0.0000000e+00   0.0000000e+00   0.0000000e+00   0.0000000e+00   0.0000000e+00   0.0000000e+00   0.0000000e+00
   0.0000000e+00   0.0000000e+00   0.0000000e+00   0.0000000e+00   0.0000000e+00   0.0000000e+00   0.0000000e+00   0.0000000e+00   0.0000000e+00   0.0000000e+00   0.0000000e+00   0.0000000e+00   0.0000000e+00   0.0000000e+00   0.0000000e+00   0.0000000e+00
   0.0000000e+00   0.0000000e+00   0.0000000e+00   0.0000000e+00   0.0000000e+00   0.0000000e+00   0.0000000e+00   0.0000000e+00   0.0000000e+00   0.0000000e+00   0.0000000e+00   0.0000000e+00   0.0000000e+00   0.0000000e+00   0.0000000e+00   0.0000000e+00
   1.9641171e-02   1.9112933e-03  -2.4136365e-02   4.1482496e-02  -4.8609444e-02   3.3036752e-02   7.7998831e-02  -8.8082894e-02  -2.8364052e-01   1.5434872e-01   1.5303015e-01  -3.1231398e-01   2.5167291e-01  -5.8046546e-01  -1.9418070e-01   3.0214014e-01
   2.5963354e-02  -9.2774807e-02   3.0011089e-02   1.7647348e-02  -1.6841931e-02   5.0497464e-02  -5.9616565e-01  -1.1938010e-01   5.1742223e-01  -1.8707112e-01   2.5849536e-01   5.5377084e-01  -6.9038118e-01   1.7457910e+00   1.3097164e-01  -6.9735019e-01
   1.0260967e-02  -2.6068115e-02   6.9627363e-02  -5.9913777e-02  -2.5928696e-01  -2.8669102e-01   2.8682491e-01  -2.9156668e-01  -4.1333925e-01  -2.8778068e-01   3.5747527e-01  -8.2647849e-01   1.3341833e-01   3.6081581e-01   1.0497408e-01  -7.4653854e-01
  -7.3238064e-02  -1.1541704e-03   1.3051455e-01  -4.0578020e-02  -2.7748089e-01  -2.5854485e-01   2.7483653e-01   5.6046130e-02   1.7417828e-01  -4.3448284e-01  -8.1273682e-01  -4.8773453e-01  -2.8477155e-02  -1.1822475e+00  -2.6607380e-01   5.5953517e-01
   0.0000000e+00   0.0000000e+00   0.0000000e+00   0.0000000e+00   0.0000000e+00   0.0000000e+00   0.0000000e+00   0.0000000e+00   0.0000000e+00   0.0000000e+00   0.0000000e+00   0.0000000e+00   0.0000000e+00   0.0000000e+00   0.0000000e+00   0.0000000e+00
   0.0000000e+00   0.0000000e+00   0.0000000e+00   0.0000000e+00   0.0000000e+00   0.0000000e+00   0.0000000e+00   0.0000000e+00   0.0000000e+00   0.0000000e+00   0.0000000e+00   0.0000000e+00   0.0000000e+00   0.0000000e+00   0.0000000e+00   0.0000000e+00
   0.0000000e+00   0.0000000e+00   0.0000000e+00   0.0000000e+00   0.0000000e+00   0.0000000e+00   0.0000000e+00   0.0000000e+00   0.0000000e+00   0.0000000e+00   0.0000000e+00   0.0000000e+00   0.0000000e+00   0.0000000e+00   0.0000000e+00   0.0000000e+00
   0.0000000e+00   0.0000000e+00   0.0000000e+00   0.0000000e+00   0.0000000e+00   0.0000000e+00   0.0000000e+00   0.0000000e+00   0.0000000e+00   0.0000000e+00   0.0000000e+00   0.0000000e+00   0.0000000e+00   0.0000000e+00   0.0000000e+00   0.0000000e+00
   0.0000000e+00   0.0000000e+00   0.0000000e+00   0.0000000e+00   0.0000000e+00   0.0000000e+00   0.0000000e+00   0.0000000e+00   0.0000000e+00   0.0000000e+00   0.0000000e+00   0.0000000e+00   0.0000000e+00   0.0000000e+00   0.0000000e+00   0.0000000e+00
   0.0000000e+00   0.0000000e+00   0.0000000e+00   0.0000000e+00   0.0000000e+00   0.0000000e+00   0.0000000e+00   0.0000000e+00   0.0000000e+00   0.0000000e+00   0.0000000e+00   0.0000000e+00   0.0000000e+00   0.0000000e+00   0.0000000e+00   0.0000000e+00
   3.1135704e-02  -1.7869120e-02  -3.3120323e-02   6.9759280e-02  -4.4181371e-02   6.2955879e-02   1.1364679e-02  -1.4033509e-01  -2.4467056e-01   8.6325382e-02   1.6149853e-01  -3.9386466e-01   2.6409793e-01  -1.7173587e-01  -3.6869474e-01   1.3536328e-01
   8.5516453e-03  -8.6997004e-02   3.7806283e-02   7.5192591e-02  -5.9033124e-02   3.9433884e-02  -5.6690907e-01  -2.5535704e-01   4.4843036e-01  -3.1716357e-01  -1.5264721e-01   2.5174148e-01  -7.5987432e-01   1.2238069e+00   1.7523446e-01  -5.1985616e-01
   8.6316627e-03  -1.9083293e-02   8.5492327e-02  -1.3831263e-01  -2.9714061e-01  -3.1165125e-01   3.3845649e-01  -2.9693318e-01  -6.1139242e-01  -1.5433084e-01   3.2449302e-01  -7.6738371e-01  -2.7372446e-02   3.1282422e-01   2.3367265e-01  -5.8513136e-01
  -7.2338859e-02   4.3494605e-02   9.9720731e-02   2.1078309e-02  -1.6578297e-01  -2.0493719e-01   3.1772651e-01   1.5355267e-01   3.8909917e-02  -3.4722395e-01  -7.8949202e-01  -2.9160345e-01  -1.1570173e-01  -1.4254894e+00   4.3598485e-04   2.7859616e-01
   0.0000000e+00   0.0000000e+00   0.0000000e+00   0.0000000e+00   0.0000000e+00   0.0000000e+00   0.0000000e+00   0.0000000e+00   0.0000000e+00   0.0000000e+00   0.0000000e+00   0.0000000e+00   0.0000000e+00   0.0000000e+00   0.0000000e+00   0.0000000e+00
   0.0000000e+00   0.0000000e+00   0.0000000e+00   0.0000000e+00   0.0000000e+00   0.0000000e+00   0.0000000e+00   0.0000000e+00   0.0000000e+00   0.0000000e+00   0.0000000e+00   0.0000000e+00   0.0000000e+00   0.0000000e+00   0.0000000e+00   0.0000000e+00
   0.0000000e+00   0.0000000e+00   0.0000000e+00   0.0000000e+00   0.0000000e+00   0.0000000e+00   0.0000000e+00   0.0000000e+00   0.0000000e+00   0.0000000e+00   0.0000000e+00   0.0000000e+00   0.0000000e+00   0.0000000e+00   0.0000000e+00   0.0000000e+00
   0.0000000e+00   0.0000000e+00   0.0000000e+00   0.0000000e+00   0.0000000e+00   0.0000000e+00   0.0000000e+00   0.0000000e+00   0.0000000e+00   0.0000000e+00   0.0000000e+00   0.0000000e+00   0.0000000e+00   0.0000000e+00   0.0000000e+00   0.0000000e+00
   0.0000000e+00   0.0000000e+00   0.0000000e+00   0.0000000e+00   0.0000000e+00   0.0000000e+00   0.0000000e+00   0.0000000e+00   0.0000000e+00   0.0000000e+00   0.0000000e+00   0.0000000e+00   0.0000000e+00   0.0000000e+00   0.0000000e+00   0.0000000e+00
   0.0000000e+00   0.0000000e+00   0.0000000e+00   0.0000000e+00   0.0000000e+00   0.0000000e+00   0.0000000e+00   0.0000000e+00   0.0000000e+00   0.0000000e+00   0.0000000e+00   0.0000000e+00   0.0000000e+00   0.0000000e+00   0.0000000e+00   0.0000000e+00
   3.6209636e-02  -2.3502657e-02  -3.6912837e-02   7.7889575e-02  -3.1457635e-02   7.1990493e-02  -1.4534276e-02  -1.5061711e-01  -2.1772832e-01   3.6667725e-02   1.4639342e-01  -3.9142340e-01   2.4340940e-01   1.5910862e-01  -4.5835499e-01  -3.6365465e-02
  -1.0465874e-02  -7.0960199e-02   4.0258995e-02   1.1990183e-01  -7.6138310e-02   3.1491160e-02  -4.9092752e-01  -3.4024605e-01   3.2739525e-01  -4.0542100e-01  -5.1729326e-01  -5.2174350e-02  -7.4629036e-01   6.3138912e-01   2.0655125e-01  -3.1622499e-01
   8.5849297e-03  -1.5420163e-02   9.4114882e-02  -2.1740087e-01  -3.0686233e-01  -3.2278733e-01   3.6905238e-01  -2.8686126e-01  -7.5951707e-01   1.2751869e-02   3.0761960e-01  -6.7457764e-01  -2.0834327e-01   2.3302548e-01   3.9641107e-01  -3.8222985e-01
  -6.6830858e-02   8.4334319e-02   6.6423605e-02   6.7088278e-02  -5.1565769e-02  -1.5444509e-01   3.1633639e-01   2.2315168e-01  -1.0481868e-01  -2.3124414e-01  -7.3628444e-01  -9.3123913e-02  -1.4779925e-01  -1.4826421e+00   2.2416843e-01  -2.4890541e-02
   0.0000000e+00   0.0000000e+00   0.0000000e+00   0.0000000e+00   0.0000000e+00   0.0000000e+00   0.0000000e+00   0.0000000e+00   0.0000000e+00   0.0000000e+00   0.0000000e+00   0.0000000e+00   0.0000000e+00   0.0000000e+00   0.0000000e+00   0.0000000e+00
   0.0000000e+00   0.0000000e+00   0.0000000e+00   0.0000000e+00   0.0000000e+00   0.0000000e+00   0.0000000e+00   0.0000000e+00   0.0000000e+00   0.0000000e+00   0.0000000e+00   0.0000000e+00   0.0000000e+00   0.0000000e+00   0.0000000e+00   0.0000000e+00
   0.0000000e+00   0.0000000e+00   0.0000000e+00   0.0000000e+00   0.0000000e+00   0.0000000e+00   0.0000000e+00   0.0000000e+00   0.0000000e+00   0.0000000e+00   0.0000000e+00   0.0000000e+00   0.0000000e+00   0.0000000e+00   0.0000000e+00   0.0000000e+00
   0.0000000e+00   0.0000000e+00   0.0000000e+00   0.0000000e+00   0.0000000e+00   0.0000000e+00   0.0000000e+00   0.0000000e+00   0.0000000e+00   0.0000000e+00   0.0000000e+00   0.0000000e+00   0.0000000e+00   0.0000000e+00   0.0000000e+00   0.0000000e+00
   0.0000000e+00   0.0000000e+00   0.0000000e+00   0.0000000e+00   0.0000000e+00   0.0000000e+00   0.0000000e+00   0.0000000e+00   0.0000000e+00   0.0000000e+00   0.0000000e+00   0.0000000e+00   0.0000000e+00   0.0000000e+00   0.0000000e+00   0.0000000e+00
   0.0000000e+00   0.0000000e+00   0.0000000e+00   0.0000000e+00   0.0000000e+00   0.0000000e+00   0.0000000e+00   0.0000000e+00   0.0000000e+00   0.0000000e+00   0.0000000e+00   0.0000000e+00   0.0000000e+00   0.0000000e+00   0.0000000e+00   0.0000000e+00
   3.5155394e-02  -1.6394649e-02  -3.5447812e-02   5.7563894e-02  -1.2036965e-02   5.8520105e-02   3.4801812e-03  -1.1008247e-01  -1.8528727e-01   1.9694624e-02   1.3499602e-01  -2.9143969e-01   2.0242959e-01   3.9159143e-01  -4.5860655e-01  -1.9428797e-01
  -2.8978133e-02  -4.8953569e-02   3.8262864e-02   1.4477081e-01  -7.5505413e-02   2.1882781e-02  -3.8164006e-01  -3.6344303e-01   1.8224078e-01  -4.4590497e-01  -7.8787977e-01  -3.1429765e-01  -6.5255491e-01   3.5272732e-02   2.1643479e-01  -8.8196730e-02
   1.0406561e-02  -1.4577129e-02   9.4645547e-02  -2.8354725e-01  -2.9253013e-01  -3.1674606e-01   3.7420329e-01  -2.6442790e-01  -8.5270802e-01   1.9266227e-01   2.9997124e-01  -5.4595206e-01  -4.0881440e-01   1.2919597e-01   5.6884641e-01  -1.6903693e-01
  -5.7791017e-02   1.1590944e-01   3.6771143e-02   8.7624922e-02   4.9069234e-02  -1.1429099e-01   2.7703381e-01   2.5406391e-01  -2.3226947e-01  -9.2675033e-02  -6.4953644e-01   7.5556009e-02  -1.2588290e-01  -1.3694047e+00   3.8876478e-01  -2.8833414e-01
   0.0000000e+00   0.0000000e+00   0.0000000e+00   0.0000000e+00   0.0000000e+00   0.0000000e+00   0.0000000e+00   0.0000000e+00   0.0000000e+00   0.0000000e+00   0.0000000e+00   0.0000000e+00   0.0000000e+00   0.0000000e+00   0.0000000e+00   0.0000000e+00
   0.0000000e+00   0.0000000e+00   0.0000000e+00   0.0000000e+00   0.0000000e+00   0.0000000e+00   0.0000000e+00   0.0000000e+00   0.0000000e+00   0.0000000e+00   0.0000000e+00   0.0000000e+00   0.0000000e+00   0.0000000e+00   0.0000000e+00   0.0000000e+00
   0.0000000e+00   0.0000000e+00   0.0000000e+00   0.0000000e+00   0.0000000e+00   0.0000000e+00   0.0000000e+00   0.0000000e+00   0.0000000e+00   0.0000000e+00   0.0000000e+00   0.0000000e+00   0.0000000e+00   0.0000000e+00   0.0000000e+00   0.0000000e+00
   0.0000000e+00   0.0000000e+00   0.0000000e+00   0.0000000e+00   0.0000000e+00   0.0000000e+00   0.0000000e+00   0.0000000e+00   0.0000000e+00   0.0000000e+00   0.0000000e+00   0.0000000e+00   0.0000000e+00   0.0000000e+00   0.0000000e+00   0.0000000e+00
   0.0000000e+00   0.0000000e+00   0.0000000e+00   0.0000000e+00   0.0000000e+00   0.0000000e+00   0.0000000e+00   0.0000000e+00   0.0000000e+00   0.0000000e+00   0.0000000e+00   0.0000000e+00   0.0000000e+00   0.0000000e+00   0.0000000e+00   0.0000000e+00
   0.0000000e+00   0.0000000e+00   0.0000000e+00   0.0000000e+00   0.0000000e+00   0.0000000e+00   0.0000000e+00   0.0000000e+00   0.0000000e+00   0.0000000e+00   0.0000000e+00   0.0000000e+00   0.0000000e+00   0.0000000e+00   0.0000000e+00   0.0000000e+00
   2.9472376e-02  -1.1934360e-03  -2.9850448e-02   1.0546176e-02   9.0454508e-03   2.6826836e-02   5.7067508e-02  -2.3228248e-02  -1.2836393e-01   3.6364323e-02   1.4581478e-01  -9.9380273e-02   1.4829948e-01   5.2592637e-01  -3.8593409e-01  -3.2764540e-01
  -4.4672184e-02  -2.6198571e-02   3.3096155e-02   1.4896231e-01  -6.7217839e-02   8.5273042e-03  -2.5572675e-01  -3.2669424e-01   4.3689283e-02  -4.4143925e-01  -9.3356895e-01  -5.0539675e-01  -4.9604579e-01  -5.0386654e-01   1.9371204e-01   1.5717654e-01
   1.4088248e-02  -1.5177086e-02   8.6877309e-02  -3.2408049e-01  -2.5811964e-01  -2.9075655e-01   3.5096189e-01  -2.3552275e-01  -8.9234041e-01   3.6187879e-01   2.9243463e-01  -3.8585822e-01  -6.2079227e-01   1.6515791e-02   7.2816020e-01   2.7444351e-02
  -4.6267157e-02   1.3334823e-01   1.5226730e-02   7.9055348e-02   1.2297854e-01  -8.7414085e-02   2.0816844e-01   2.4208901e-01  -3.2110748e-01   6.0256093e-02  -5.2858327e-01   1.9120249e-01  -6.4028342e-02  -1.1231342e+00   4.8448752e-01  -4.6088660e-01
   0.0000000e+00   0.0000000e+00   0.0000000e+00   0.0000000e+00   0.0000000e+00   0.0000000e+00   0.0000000e+00   0.0000000e+00   0.0000000e+00   0.0000000e+00   0.0000000e+00   0.0000000e+00   0.0000000e+00   0.0000000e+00   0.0000000e+00   0.0000000e+00
   0.0000000e+00   0.0000000e+00   0.0000000e+00   0.0000000e+00   0.0000000e+00   0.0000000e+00   0.0000000e+00   0.0000000e+00   0.0000000e+00   0.0000000e+00   0.0000000e+00   0.0000000e+00   0.0000000e+00   0.0000000e+00   0.0000000e+00   0.0000000e+00
   0.0000000e+00   0.0000000e+00   0.0000000e+00   0.0000000e+00   0.0000000e+00   0.0000000e+00   0.0000000e+00   0.0000000e+00   0.0000000e+00   0.0000000e+00   0.0000000e+00   0.0000000e+00   0.0000000e+00   0.0000000e+00   0.0000000e+00   0.0000000e+00
   0.0000000e+00   0.0000000e+00   0.0000000e+00   0.0000000e+00   0.0000000e+00   0.0000000e+00   0.0000000e+00   0.0000000e+00   0.0000000e+00   0.0000000e+00   0.0000000e+00   0.0000000e+00   0.0000000e+00   0.0000000e+00   0.0000000e+00   0.0000000e+00
   0.0000000e+00   0.0000000e+00   0.0000000e+00   0.0000000e+00   0.0000000e+00   0.0000000e+00   0.0000000e+00   0.0000000e+00   0.0000000e+00   0.0000000e+00   0.0000000e+00   0.0000000e+00   0.0000000e+00   0.0000000e+00   0.0000000e+00   0.0000000e+00
   0.0000000e+00   0.0000000e+00   0.0000000e+00   0.0000000e+00   0.0000000e+00   0.0000000e+00   0.0000000e+00   0.0000000e+00   0.0000000e+00   0.0000000e+00   0.0000000e+00   0.0000000e+00   0.0000000e+00   0.0000000e+00   0.0000000e+00   0.0000000e+00
   2.1371116e-02   1.6041953e-02  -2.2212128e-02  -5.1839726e-02   2.6340643e-02  -1.3394989e-02   1.2826287e-01   9.2377443e-02  -3.5892654e-02   7.5903746e-02   1.8310163e-01   1.5848169e-01   8.3940161e-02   5.7771094e-01  -2.6974061e-01  -4.3242008e-01
  -5.5414476e-02  -7.4299845e-03   2.6246906e-02   1.3756456e-01  -6.1125397e-02  -7.5863963e-03  -1.3080482e-01  -2.4346635e-01  -6.2092029e-02  -4.0205349e-01  -9.4447730e-01  -6.1284995e-01  -3.0558252e-01  -9.3758646e-01   1.2961975e-01   4.0775484e-01
   1.9248757e-02  -1.5084828e-02   7.1464445e-02  -3.2962045e-01  -2.0696935e-01  -2.4366375e-01   2.9896009e-01  -2.0708706e-01  -8.8458050e-01   4.9752799e-01   2.7662176e-01  -2.0409663e-01  -8.2942038e-01  -8.6656899e-02   8.5657425e-01   1.8922382e-01
  -3.3230192e-02   1.3334381e-01   4.1015365e-03   4.4625507e-02   1.6159437e-01  -7.2583050e-02   1.1902291e-01   1.8947366e-01  -3.5597761e-01   2.1625937e-01  -3.7781966e-01   2.4110710e-01   1.5324821e-02  -7.9467450e-01   5.0864007e-01  -5.1151630e-01
   0.0000000e+00   0.0000000e+00   0.0000000e+00   0.0000000e+00   0.0000000e+00   0.0000000e+00   0.0000000e+00   0.0000000e+00   0.0000000e+00   0.0000000e+00   0.0000000e+00   0.0000000e+00   0.0000000e+00   0.0000000e+00   0.0000000e+00   0.0000000e+00
   0.0000000e+00   0.0000000e+00   0.0000000e+00   0.0000000e+00   0.0000000e+00   0.0000000e+00   0.0000000e+00   0.0000000e+00   0.0000000e+00   0.0000000e+00   0.0000000e+00   0.0000000e+00   0.0000000e+00   0.0000000e+00   0.0000000e+00   0.0000000e+00
   0.0000000e+00   0.0000000e+00   0.0000000e+00   0.0000000e+00   0.0000000e+00   0.0000000e+00   0.0000000e+00   0.0000000e+00   0.0000000e+00   0.0000000e+00   0.0000000e+00   0.0000000e+00   0.0000000e+00   0.0000000e+00   0.0000000e+00   0.0000000e+00
   0.0000000e+00   0.0000000e+00   0.0000000e+00   0.0000000e+00   0.0000000e+00   0.0000000e+00   0.0000000e+00   0.0000000e+00   0.0000000e+00   0.0000000e+00   0.0000000e+00   0.0000000e+00   0.0000000e+00   0.0000000e+00   0.0000000e+00   0.0000000e+00
   0.0000000e+00   0.0000000e+00   0.0000000e+00   0.0000000e+00   0.0000000e+00   0.0000000e+00   0.0000000e+00   0.0000000e+00   0.0000000e+00   0.0000000e+00   0.0000000e+00   0.0000000e+00   0.0000000e+00   0.0000000e+00   0.0000000e+00   0.0000000e+00
   0.0000000e+00   0.0000000e+00   0.0000000e+00   0.0000000e+00   0.0000000e+00   0.0000000e+00   0.0000000e+00   0.0000000e+00   0.0000000e+00   0.0000000e+00   0.0000000e+00   0.0000000e+00   0.0000000e+00   0.0000000e+00   0.0000000e+00   0.0000000e+00
   1.3158135e-02   2.9830846e-02  -1.5135571e-02  -1.1204516e-01   3.7064855e-02  -4.9180698e-02   1.9336545e-01   2.0958187e-01   8.8294816e-02   1.2025789e-01   2.3589417e-01   4.3759891e-01   1.2069197e-02   5.7127507e-01  -1.4201703e-01  -5.0876236e-01
  -5.9647406e-02   4.4201337e-03   1.9281951e-02   1.1964087e-01  -6.4052591e-02  -2.3118706e-02  -2.2705216e-02  -1.3608195e-01  -1.1928091e-01  -3.4193715e-01  -8.3210911e-01  -6.3964996e-01  -1.1591867e-01  -1.2338907e+00   2.3075266e-02   6.4764193e-01
   2.5158088e-02  -1.1869419e-02   4.9992060e-02  -2.9575704e-01  -1.4201594e-01  -1.7667507e-01   2.2114583e-01  -1.8510027e-01  -8.3750889e-01   5.8050136e-01   2.4769162e-01  -1.3729201e-02  -1.0154206e+00  -1.6322223e-01   9.4260560e-01   3.1001801e-01
  -1.9599840e-02   1.1506119e-01   3.4608505e-03  -6.3452201e-03   1.6214379e-01  -6.5485443e-02   1.9241892e-02   1.0438562e-01  -3.3186777e-01   3.6075629e-01  -2.0752695e-01   2.2347337e-01   8.7852173e-02  -4.3904711e-01   4.6629078e-01  -4.3392749e-01
   0.0000000e+00   0.0000000e+00   0.0000000e+00   0.0000000e+00   0.0000000e+00   0.0000000e+00   0.0000000e+00   0.0000000e+00   0.0000000e+00   0.0000000e+00   0.0000000e+00   0.0000000e+00   0.0000000e+00   0.0000000e+00   0.0000000e+00   0.0000000e+00
   0.0000000e+00   0.0000000e+00   0.0000000e+00   0.0000000e+00   0.0000000e+00   0.0000000e+00   0.0000000e+00   0.0000000e+00   0.0000000e+00   0.0000000e+00   0.0000000e+00   0.0000000e+00   0.0000000e+00   0.0000000e+00   0.0000000e+00   0.0000000e+00
   0.0000000e+00   0.0000000e+00   0.0000000e+00   0.0000000e+00   0.0000000e+00   0.0000000e+00   0.0000000e+00   0.0000000e+00   0.0000000e+00   0.0000000e+00   0.0000000e+00   0.0000000e+00   0.0000000e+00   0.0000000e+00   0.0000000e+00   0.0000000e+00
   0.0000000e+00   0.0000000e+00   0.0000000e+00   0.0000000e+00   0.0000000e+00   0.0000000e+00   0.0000000e+00   0.0000000e+00   0.0000000e+00   0.0000000e+00   0.0000000e+00   0.0000000e+00   0.0000000e+00   0.0000000e+00   0.0000000e+00   0.0000000e+00
   0.0000000e+00   0.0000000e+00   0.0000000e+00   0.0000000e+00   0.0000000e+00   0.0000000e+00   0.0000000e+00   0.0000000e+00   0.0000000e+00   0.0000000e+00   0.0000000e+00   0.0000000e+00   0.0000000e+00   0.0000000e+00   0.0000000e+00   0.0000000e+00
   0.0000000e+00   0.0000000e+00   0.0000000e+00   0.0000000e+00   0.0000000e+00   0.0000000e+00   0.0000000e+00   0.0000000e+00   0.0000000e+00   0.0000000e+00   0.0000000e+00   0.0000000e+00   0.0000000e+00   0.0000000e+00   0.0000000e+00   0.0000000e+00
   6.6501578e-03   3.6810603e-02  -1.1164226e-02  -1.5154116e-01   4.3015805e-02  -6.7639984e-02   2.2821614e-01   2.9778989e-01   2.2333925e-01   1.5004453e-01   2.8160948e-01   6.8202004e-01  -6.0303906e-02   5.3308242e-01  -2.8256832e-02  -5.5834267e-01
  -5.6713409e-02   9.0531258e-03   1.3739173e-02   1.0513485e-01  -7.8005544e-02  -3.3948602e-02   5.7276717e-02  -3.1060225e-02  -1.2507688e-01  -2.7571502e-01  -6.2606899e-01  -6.0052739e-01   3.8780549e-02  -1.3790654e+00  -1.1589112e-01   8.5903787e-01
   3.0861286e-02  -3.5087042e-03   2.4876170e-02  -2.2377196e-01  -6.6624560e-02  -9.3589422e-02   1.2394182e-01  -1.7281076e-01  -7.5779162e-01   5.9792954e-01   2.0637393e-01   1.7174055e-01  -1.1590654e+00  -2.0131437e-01   9.8021810e-01   3.9565646e-01
  -6.3083055e-03   8.0711523e-02   1.1373496e-02  -6.0551387e-02   1.2809452e-01  -6.0547323e-02  -8.1250890e-02   1.2626922e-04  -2.5526602e-01   4.7652033e-01  -3.3085059e-02   1.4682989e-01   1.3412245e-01  -1.0638330e-01   3.7052117e-01  -2.4788409e-01
   0.0000000e+00   0.0000000e+00   0.0000000e+00   0.0000000e+00   0.0000000e+00   0.0000000e+00   0.0000000e+00   0.0000000e+00   0.0000000e+00   0.0000000e+00   0.0000000e+00   0.0000000e+00   0.0000000e+00   0.0000000e+00   0.0000000e+00   0.0000000e+00
   0.0000000e+00   0.0000000e+00   0.0000000e+00   0.0000000e+00   0.0000000e+00   0.0000000e+00   0.0000000e+00   0.0000000e+00   0.0000000e+00   0.0000000e+00   0.0000000e+00   0.0000000e+00   0.0000000e+00   0.0000000e+00   0.0000000e+00   0.0000000e+00
   0.0000000e+00   0.0000000e+00   0.0000000e+00   0.0000000e+00   0.0000000e+00   0.0000000e+00   0.0000000e+00   0.0000000e+00   0.0000000e+00   0.0000000e+00   0.0000000e+00   0.0000000e+00   0.0000000e+00   0.0000000e+00   0.0000000e+00   0.0000000e+00
   0.0000000e+00   0.0000000e+00   0.0000000e+00   0.0000000e+00   0.0000000e+00   0.0000000e+00   0.0000000e+00   0.0000000e+00   0.0000000e+00   0.0000000e+00   0.0000000e+00   0.0000000e+00   0.0000000e+00   0.0000000e+00   0.0000000e+00   0.0000000e+00
   0.0000000e+00   0.0000000e+00   0.0000000e+00   0.0000000e+00   0.0000000e+00   0.0000000e+00   0.0000000e+00   0.0000000e+00   0.0000000e+00   0.0000000e+00   0.0000000e+00   0.0000000e+00   0.0000000e+00   0.0000000e+00   0.0000000e+00   0.0000000e+00
   0.0000000e+00   0.0000000e+00   0.0000000e+00   0.0000000e+00   0.0000000e+00   0.0000000e+00   0.0000000e+00   0.0000000e+00   0.0000000e+00   0.0000000e+00   0.0000000e+00   0.0000000e+00   0.0000000e+00   0.0000000e+00   0.0000000e+00   0.0000000e+00
   2.7551004e-03   3.6382197e-02  -1.2220588e-02  -1.5657788e-01   5.0469329e-02  -5.9684491e-02   2.1393773e-01   3.3056817e-01   3.3519797e-01   1.5050374e-01   2.9318852e-01   8.3474653e-01  -1.1912159e-01   4.8615764e-01   5.7614990e-02  -5.8248492e-01
  -4.7031305e-02   8.8850604e-03   1.1015630e-02   1.0147972e-01  -9.9936519e-02  -3.7108806e-02   1.0467503e-01   4.6521934e-02  -8.8567468e-02  -2.1494616e-01  -3.6778352e-01  -5.1599631e-01   1.3084802e-01  -1.3771735e+00  -2.6602427e-01   1.0241971e+00
   3.5371969e-02   1.0854775e-02  -8.9381161e-04  -1.2031645e-01   1.4378932e-02  -4.0826464e-04   1.6730544e-02  -1.6965913e-01  -6.4795608e-01   5.4476015e-01   1.5967101e-01   3.4111786e-01  -1.2447668e+00  -1.9724595e-01   9.6666356e-01   4.6238986e-01
   5.6429446e-03   3.5579612e-02   2.4432499e-02  -1.0360302e-01   6.8551280e-02  -5.3052268e-02  -1.7201391e-01  -1.0591274e-01  -1.4260097e-01   5.4516940e-01   1.2734427e-01   2.8696992e-02   1.4498466e-01   1.6556156e-01   2.4143135e-01   3.2291129e-03
   0.0000000e+00   0.0000000e+00   0.0000000e+00   0.0000000e+00   0.0000000e+00   0.0000000e+00   0.0000000e+00   0.0000000e+00   0.0000000e+00   0.0000000e+00   0.0000000e+00   0.0000000e+00   0.0000000e+00   0.0000000e+00   0.0000000e+00   0.0000000e+00
   0.0000000e+00   0.0000000e+00   0.0000000e+00   0.0000000e+00   0.0000000e+00   0.0000000e+00   0.0000000e+00   0.0000000e+00   0.0000000e+00   0.0000000e+00   0.0000000e+00   0.0000000e+00   0.0000000e+00   0.0000000e+00   0.0000000e+00   0.0000000e+00
   0.0000000e+00   0.0000000e+00   0.0000000e+00   0.0000000e+00   0.0000000e+00   0.0000000e+00   0.0000000e+00   0.0000000e+00   0.0000000e+00   0.0000000e+00   0.0000000e+00   0.0000000e+00   0.0000000e+00   0.0000000e+00   0.0000000e+00   0.0000000e+00
   0.0000000e+00   0.0000000e+00   0.0000000e+00   0.0000000e+00   0.0000000e+00   0.0000000e+00   0.0000000e+00   0.0000000e+00   0.0000000e+00   0.0000000e+00   0.0000000e+00   0.0000000e+00   0.0000000e+00   0.0000000e+00   0.0000000e+00   0.0000000e+00
   0.0000000e+00   0.0000000e+00   0.0000000e+00   0.0000000e+00   0.0000000e+00   0.0000000e+00   0.0000000e+00   0.0000000e+00   0.0000000e+00   0.0000000e+00   0.0000000e+00   0.0000000e+00   0.0000000e+00   0.0000000e+00   0.0000000e+00   0.0000000e+00
   0.0000000e+00   0.0000000e+00   0.0000000e+00   0.0000000e+00   0.0000000e+00   0.0000000e+00   0.0000000e+00   0.0000000e+00   0.0000000e+00   0.0000000e+00   0.0000000e+00   0.0000000e+00   0.0000000e+00   0.0000000e+00   0.0000000e+00   0.0000000e+00
   1.3164519e-03   3.0302488e-02  -1.9161299e-02  -1.2291469e-01   6.7855995e-02  -2.3134591e-02   1.4200799e-01   2.9306944e-01   3.8587475e-01   1.1606644e-01   2.4799999e-01   8.4989434e-01  -1.4389423e-01   4.4606037e-01   1.1303159e-01  -5.8138255e-01
  -3.2077542e-02   8.3086430e-03   1.2232227e-02   1.1084511e-01  -1.2318497e-01  -3.2472739e-02   1.2315743e-01   7.8578659e-02  -2.6157066e-02  -1.6563368e-01  -1.0247184e-01  -4.0557301e-01   1.4311620e-01  -1.2476107e+00  -3.9854017e-01   1.1273041e+00
   3.7887666e-02   3.0335365e-02  -2.4130780e-02   3.8153540e-03   9.3966752e-02   9.5603086e-02  -8.9300262e-02  -1.7118533e-01  -5.0526481e-01   4.2433289e-01   1.1994453e-01   4.8750611e-01  -1.2651010e+00  -1.5696463e-01   9.0014505e-01   5.3346069e-01
   1.5175722e-02  -1.2602098e-02   3.8449635e-02  -1.2312099e-01  -3.4555367e-03  -4.1026216e-02  -2.4184549e-01  -1.9366977e-01  -1.6134371e-02   5.4939272e-01   2.5621134e-01  -1.0636942e-01   1.2416774e-01   3.5619554e-01   1.0348831e-01   2.5851648e-01
   0.0000000e+00   0.0000000e+00   0.0000000e+00   0.0000000e+00   0.0000000e+00   0.0000000e+00   0.0000000e+00   0.0000000e+00   0.0000000e+00   0.0000000e+00   0.0000000e+00   0.0000000e+00   0.0000000e+00   0.0000000e+00   0.0000000e+00   0.0000000e+00
   0.0000000e+00   0.0000000e+00   0.0000000e+00   0.0000000e+00   0.0000000e+00   0.0000000e+00   0.0000000e+00   0.0000000e+00   0.0000000e+00   0.0000000e+00   0.0000000e+00   0.0000000e+00   0.0000000e+00   0.0000000e+00   0.0000000e+00   0.0000000e+00
   0.0000000e+00   0.0000000e+00   0.0000000e+00   0.0000000e+00   0.0000000e+00   0.0000000e+00   0.0000000e+00   0.0000000e+00   0.0000000e+00   0.0000000e+00   0.0000000e+00   0.0000000e+00   0.0000000e+00   0.0000000e+00   0.0000000e+00   0.0000000e+00
   0.0000000e+00   0.0000000e+00   0.0000000e+00   0.0000000e+00   0.0000000e+00   0.0000000e+00   0.0000000e+00   0.0000000e+00   0.0000000e+00   0.0000000e+00   0.0000000e+00   0.0000000e+00   0.0000000e+00   0.0000000e+00   0.0000000e+00   0.0000000e+00
   0.0000000e+00   0.0000000e+00   0.0000000e+00   0.0000000e+00   0.0000000e+00   0.0000000e+00   0.0000000e+00   0.0000000e+00   0.0000000e+00   0.0000000e+00   0.0000000e+00   0.0000000e+00   0.0000000e+00   0.0000000e+00   0.0000000e+00   0.0000000e+00
   0.0000000e+00   0.0000000e+00   0.0000000e+00   0.0000000e+00   0.0000000e+00   0.0000000e+00   0.0000000e+00   0.0000000e+00   0.0000000e+00   0.0000000e+00   0.0000000e+00   0.0000000e+00   0.0000000e+00   0.0000000e+00   0.0000000e+00   0.0000000e+00
   1.2570071e-03   2.1397221e-02  -3.1520928e-02  -5.8184896e-02   1.0178448e-01   3.5733200e-02   1.7520118e-02   1.8748880e-01   3.4579029e-01   5.2556074e-02   1.3628452e-01   7.0436637e-01  -1.1217376e-01   4.1859515e-01   1.4187812e-01  -5.5422031e-01
  -1.4162731e-02   1.2286549e-02   1.8072567e-02   1.2882191e-01  -1.4021179e-01  -2.3607121e-02   1.2434583e-01   5.8338092e-02   4.5051139e-02  -1.2726626e-01   1.2910626e-01  -2.8168795e-01   7.0412500e-02  -1.0213278e+00  -4.8394035e-01   1.1562409e+00
   3.7973255e-02   5.2109627e-02  -4.1884604e-02   1.3549141e-01   1.6290076e-01   1.8716863e-01  -1.8277758e-01  -1.6997612e-01  -3.2282922e-01   2.4797984e-01   1.0238175e-01   6.0902698e-01  -1.2230870e+00  -9.5706750e-02   7.7840539e-01   6.3429927e-01
   2.1208045e-02  -5.4894357e-02   4.9220522e-02  -1.1138423e-01  -7.3569708e-02  -2.6367202e-02  -2.7894614e-01  -2.4240486e-01   1.0181840e-01   4.7573318e-01   3.4031213e-01  -2.2934777e-01   8.7349887e-02   4.6348343e-01  -1.8643097e-02   4.4892562e-01
   0.0000000e+00   0.0000000e+00   0.0000000e+00   0.0000000e+00   0.0000000e+00   0.0000000e+00   0.0000000e+00   0.0000000e+00   0.0000000e+00   0.0000000e+00   0.0000000e+00   0.0000000e+00   0.0000000e+00   0.0000000e+00   0.0000000e+00   0.0000000e+00
   0.0000000e+00   0.0000000e+00   0.0000000e+00   0.0000000e+00   0.0000000e+00   0.0000000e+00   0.0000000e+00   0.0000000e+00   0.0000000e+00   0.0000000e+00   0.0000000e+00   0.0000000e+00   0.0000000e+00   0.0000000e+00   0.0000000e+00   0.0000000e+00
   0.0000000e+00   0.0000000e+00   0.0000000e+00   0.0000000e+00   0.0000000e+00   0.0000000e+00   0.0000000e+00   0.0000000e+00   0.0000000e+00   0.0000000e+00   0.0000000e+00   0.0000000e+00   0.0000000e+00   0.0000000e+00   0.0000000e+00   0.0000000e+00
   0.0000000e+00   0.0000000e+00   0.0000000e+00   0.0000000e+00   0.0000000e+00   0.0000000e+00   0.0000000e+00   0.0000000e+00   0.0000000e+00   0.0000000e+00   0.0000000e+00   0.0000000e+00   0.0000000e+00   0.0000000e+00   0.0000000e+00   0.0000000e+00
   0.0000000e+00   0.0000000e+00   0.0000000e+00   0.0000000e+00   0.0000000e+00   0.0000000e+00   0.0000000e+00   0.0000000e+00   0.0000000e+00   0.0000000e+00   0.0000000e+00   0.0000000e+00   0.0000000e+00   0.0000000e+00   0.0000000e+00   0.0000000e+00
   0.0000000e+00   0.0000000e+00   0.0000000e+00   0.0000000e+00   0.0000000e+00   0.0000000e+00   0.0000000e+00   0.0000000e+00   0.0000000e+00   0.0000000e+00   0.0000000e+00   0.0000000e+00   0.0000000e+00   0.0000000e+00   0.0000000e+00   0.0000000e+00
   9.8921770e-04   1.1861702e-02  -4.7473162e-02   1.8920523e-02   1.5264163e-01   1.0282205e-01  -1.4030039e-01   3.4984843e-02   2.0588177e-01  -2.3434543e-02  -3.3074514e-02   4.0650183e-01  -7.0046957e-03   3.9929787e-01   1.4714016e-01  -4.9979930e-01
   3.9637638e-03   2.4619514e-02   2.8609175e-02   1.4502126e-01  -1.4581024e-01  -1.7390009e-02   1.2582494e-01  -7.5379634e-03   1.1382703e-01  -9.3577713e-02   2.9757703e-01  -1.4584006e-01  -8.1218343e-02  -7.3634237e-01  -5.0021577e-01   1.1042647e+00
   3.5661266e-02   7.1731996e-02  -5.1875955e-02   2.6117806e-01   2.1071881e-01   2.6821746e-01  -2.5391203e-01  -1.5745521e-01  -9.3053744e-02   3.3771445e-02   1.2115612e-01   7.0804175e-01  -1.1318756e+00  -3.5751343e-02   5.9901079e-01   7.8672910e-01
   2.2819262e-02  -8.2819232e-02   5.3265126e-02  -6.7000161e-02  -1.2911303e-01  -1.4833560e-02  -2.7188016e-01  -2.3343834e-01   1.9491015e-01   3.1770350e-01   3.7397815e-01  -3.1000732e-01   5.7803906e-02   5.0180983e-01  -1.0505691e-01   5.0900736e-01
   0.0000000e+00   0.0000000e+00   0.0000000e+00   0.0000000e+00   0.0000000e+00   0.0000000e+00   0.0000000e+00   0.0000000e+00   0.0000000e+00   0.0000000e+00   0.0000000e+00   0.0000000e+00   0.0000000e+00   0.0000000e+00   0.0000000e+00   0.0000000e+00
   0.0000000e+00   0.0000000e+00   0.0000000e+00   0.0000000e+00   0.0000000e+00   0.0000000e+00   0.0000000e+00   0.0000000e+00   0.0000000e+00   0.0000000e+00   0.0000000e+00   0.0000000e+00   0.0000000e+00   0.0000000e+00   0.0000000e+00   0.0000000e+00
   0.0000000e+00   0.0000000e+00   0.0000000e+00   0.0000000e+00   0.0000000e+00   0.0000000e+00   0.0000000e+00   0.0000000e+00   0.0000000e+00   0.0000000e+00   0.0000000e+00   0.0000000e+00   0.0000000e+00   0.0000000e+00   0.0000000e+00   0.0000000e+00
   0.0000000e+00   0.0000000e+00   0.0000000e+00   0.0000000e+00   0.0000000e+00   0.0000000e+00   0.0000000e+00   0.0000000e+00   0.0000000e+00   0.0000000e+00   0.0000000e+00   0.0000000e+00   0.0000000e+00   0.0000000e+00   0.0000000e+00   0.0000000e+00
   0.0000000e+00   0.0000000e+00   0.0000000e+00   0.0000000e+00   0.0000000e+00   0.0000000e+00   0.0000000e+00   0.0000000e+00   0.0000000e+00   0.0000000e+00   0.0000000e+00   0.0000000e+00   0.0000000e+00   0.0000000e+00   0.0000000e+00   0.0000000e+00
   0.0000000e+00   0.0000000e+00   0.0000000e+00   0.0000000e+00   0.0000000e+00   0.0000000e+00   0.0000000e+00   0.0000000e+00   0.0000000e+00   0.0000000e+00   0.0000000e+00   0.0000000e+00   0.0000000e+00   0.0000000e+00   0.0000000e+00   0.0000000e+00
  -1.0098533e-03   1.7892140e-03  -6.4011271e-02   8.2730568e-02   2.1137748e-01   1.5915659e-01  -3.0078209e-01  -1.2692937e-01  -1.4342448e-02  -8.7920004e-02  -2.3120166e-01  -6.5721122e-04   1.7465849e-01   3.7469275e-01   1.2440751e-01  -4.1722087e-01
   1.9606015e-02   4.6346650e-02   4.3131646e-02   1.4560768e-01  -1.3972774e-01  -2.2299701e-02   1.4731733e-01  -9.9646974e-02   1.7904611e-01  -5.4890427e-02   3.8927638e-01   1.1678617e-02  -2.9664240e-01  -4.3307337e-01  -4.4007394e-01   9.7158672e-01
   3.1428924e-02   8.3969033e-02  -5.2883952e-02   3.6853102e-01   2.2770964e-01   3.3467577e-01  -2.9599598e-01  -1.2610618e-01   1.8712060e-01  -1.9541485e-01   1.8489084e-01   7.8896939e-01  -1.0115928e+00  -2.4569641e-03   3.6154021e-01   1.0026646e+00
   1.9492294e-02  -9.0151466e-02   4.8458759e-02   4.6986705e-03  -1.6182316e-01  -1.4737284e-02  -2.1158275e-01  -1.5368997e-01   2.5734218e-01   7.8963857e-02   3.6088128e-01  -3.2095992e-01   5.9537774e-02   4.9676092e-01  -1.4515421e-01   3.8986326e-01
   0.0000000e+00   0.0000000e+00   0.0000000e+00   0.0000000e+00   0.0000000e+00   0.0000000e+00   0.0000000e+00   0.0000000e+00   0.0000000e+00   0.0000000e+00   0.0000000e+00   0.0000000e+00   0.0000000e+00   0.0000000e+00   0.0000000e+00   0.0000000e+00
   0.0000000e+00   0.0000000e+00   0.0000000e+00   0.0000000e+00   0.0000000e+00   0.0000000e+00   0.0000000e+00   0.0000000e+00   0.0000000e+00   0.0000000e+00   0.0000000e+00   0.0000000e+00   0.0000000e+00   0.0000000e+00   0.0000000e+00   0.0000000e+00
   0.0000000e+00   0.0000000e+00   0.0000000e+00   0.0000000e+00   0.0000000e+00   0.0000000e+00   0.0000000e+00   0.0000000e+00   0.0000000e+00   0.0000000e+00   0.0000000e+00   0.0000000e+00   0.0000000e+00   0.0000000e+00   0.0000000e+00   0.0000000e+00
   0.0000000e+00   0.0000000e+00   0.0000000e+00   0.0000000e+00   0.0000000e+00   0.0000000e+00   0.0000000e+00   0.0000000e+00   0.0000000e+00   0.0000000e+00   0.0000000e+00   0.0000000e+00   0.0000000e+00   0.0000000e+00   0.0000000e+00   0.0000000e+00
   0.0000000e+00   0.0000000e+00   0.0000000e+00   0.0000000e+00   0.0000000e+00   0.0000000e+00   0.0000000e+00   0.0000000e+00   0.0000000e+00   0.0000000e+00   0.0000000e+00   0.0000000e+00   0.0000000e+00   0.0000000e+00   0.0000000e+00   0.0000000e+00
   0.0000000e+00   0.0000000e+00   0.0000000e+00   0.0000000e+00   0.0000000e+00   0.0000000e+00   0.0000000e+00   0.0000000e+00   0.0000000e+00   0.0000000e+00   0.0000000e+00   0.0000000e+00   0.0000000e+00   0.0000000e+00   0.0000000e+00   0.0000000e+00
  -5.6143937e-03  -1.1428556e-02  -7.7338874e-02   1.0722522e-01   2.5904242e-01   1.8567121e-01  -4.2750021e-01  -2.5168519e-01  -2.6598373e-01  -1.1513077e-01  -4.1320601e-01  -4.4319991e-01   4.1517045e-01   3.2530060e-01   5.9622875e-02  -3.0630643e-01
   3.0604420e-02   7.4740792e-02   5.9984006e-02   1.1730486e-01  -1.2765567e-01  -4.5639831e-02   2.0539924e-01  -1.8943689e-01   2.4967543e-01  -1.6429371e-03   4.0719949e-01   2.0766024e-01  -5.5381033e-01  -1.4988117e-01  -3.1481225e-01   7.6673971e-01
   2.6038472e-02   8.4031608e-02  -4.5049616e-02   4.4725806e-01   2.0756110e-01   3.8450522e-01  -3.0622162e-01  -7.1595894e-02   5.1026543e-01  -4.1426649e-01   2.9221816e-01   8.5516362e-01  -8.8370959e-01  -1.9014232e-02   7.1186433e-02   1.2778134e+00
   1.1386021e-02  -7.4474287e-02   3.4472507e-02   9.2521849e-02  -1.6960479e-01  -3.4475716e-02  -9.4382036e-02   1.3457643e-04   2.9544359e-01  -2.2377945e-01   3.1385253e-01  -2.4259613e-01   1.0942103e-01   4.7775909e-01  -1.4039262e-01   7.1841175e-02
   0.0000000e+00   0.0000000e+00   0.0000000e+00   0.0000000e+00   0.0000000e+00   0.0000000e+00   0.0000000e+00   0.0000000e+00   0.0000000e+00   0.0000000e+00   0.0000000e+00   0.0000000e+00   0.0000000e+00   0.0000000e+00   0.0000000e+00   0.0000000e+00
   0.0000000e+00   0.0000000e+00   0.0000000e+00   0.0000000e+00   0.0000000e+00   0.0000000e+00   0.0000000e+00   0.0000000e+00   0.0000000e+00   0.0000000e+00   0.0000000e+00   0.0000000e+00   0.0000000e+00   0.0000000e+00   0.0000000e+00   0.0000000e+00
   0.0000000e+00   0.0000000e+00   0.0000000e+00   0.0000000e+00   0.0000000e+00   0.0000000e+00   0.0000000e+00   0.0000000e+00   0.0000000e+00   0.0000000e+00   0.0000000e+00   0.0000000e+00   0.0000000e+00   0.0000000e+00   0.0000000e+00   0.0000000e+00
   0.0000000e+00   0.0000000e+00   0.0000000e+00   0.0000000e+00   0.0000000e+00   0.0000000e+00   0.0000000e+00   0.0000000e+00   0.0000000e+00   0.0000000e+00   0.0000000e+00   0.0000000e+00   0.0000000e+00   0.0000000e+00   0.0000000e+00   0.0000000e+00
   0.0000000e+00   0.0000000e+00   0.0000000e+00   0.0000000e+00   0.0000000e+00   0.0000000e+00   0.0000000e+00   0.0000000e+00   0.0000000e+00   0.0000000e+00   0.0000000e+00   0.0000000e+00   0.0000000e+00   0.0000000e+00   0.0000000e+00   0.0000000e+00
   0.0000000e+00   0.0000000e+00   0.0000000e+00   0.0000000e+00   0.0000000e+00   0.0000000e+00   0.0000000e+00   0.0000000e+00   0.0000000e+00   0.0000000e+00   0.0000000e+00   0.0000000e+00   0.0000000e+00   0.0000000e+00   0.0000000e+00   0.0000000e+00
  -1.2623603e-02  -3.2357223e-02  -8.3439141e-02   7.3881090e-02   2.7012576e-01   1.6884695e-01  -4.8611880e-01  -2.9484923e-01  -4.7888224e-01  -8.4469110e-02  -5.2734907e-01  -8.2783870e-01   6.7362867e-01   2.3041027e-01  -6.6589703e-02  -1.6786033e-01
   3.5699991e-02   1.0325333e-01   7.6422377e-02   5.2036991e-02  -1.1987292e-01  -9.0301244e-02   3.0750081e-01  -2.4519168e-01   3.3953824e-01   7.1503939e-02   3.6844047e-01   4.5743218e-01  -8.2463441e-01   8.1011568e-02  -1.5318427e-01   5.0734466e-01
   2.0264524e-02   6.8974010e-02  -3.0055157e-02   4.8906871e-01   1.5010060e-01   4.1680073e-01  -2.8554859e-01   5.7341404e-03   8.5326184e-01  -5.9755505e-01   4.2825369e-01   9.0562838e-01  -7.6386851e-01  -1.0053036e-01  -2.5734818e-01   1.5858688e+00
  -4.3168255e-04  -3.8162125e-02   1.2954123e-02   1.8124640e-01  -1.5670514e-01  -7.9322137e-02   7.4317872e-02   2.1711670e-01   3.2520948e-01  -5.5853683e-01   2.5249179e-01  -6.8844837e-02   2.1005732e-01   4.6982926e-01  -1.0409194e-01  -4.2459975e-01
   0.0000000e+00   0.0000000e+00   0.0000000e+00   0.0000000e+00   0.0000000e+00   0.0000000e+00   0.0000000e+00   0.0000000e+00   0.0000000e+00   0.0000000e+00   0.0000000e+00   0.0000000e+00   0.0000000e+00   0.0000000e+00   0.0000000e+00   0.0000000e+00
   0.0000000e+00   0.0000000e+00   0.0000000e+00   0.0000000e+00   0.0000000e+00   0.0000000e+00   0.0000000e+00   0.0000000e+00   0.0000000e+00   0.0000000e+00   0.0000000e+00   0.0000000e+00   0.0000000e+00   0.0000000e+00   0.0000000e+00   0.0000000e+00
   0.0000000e+00   0.0000000e+00   0.0000000e+00   0.0000000e+00   0.0000000e+00   0.0000000e+00   0.0000000e+00   0.0000000e+00   0.0000000e+00   0.0000000e+00   0.0000000e+00   0.0000000e+00   0.0000000e+00   0.0000000e+00   0.0000000e+00   0.0000000e+00
   0.0000000e+00   0.0000000e+00   0.0000000e+00   0.0000000e+00   0.0000000e+00   0.0000000e+00   0.0000000e+00   0.0000000e+00   0.0000000e+00   0.0000000e+00   0.0000000e+00   0.0000000e+00   0.0000000e+00   0.0000000e+00   0.0000000e+00   0.0000000e+00
   0.0000000e+00   0.0000000e+00   0.0000000e+00   0.0000000e+00   0.0000000e+00   0.0000000e+00   0.0000000e+00   0.0000000e+00   0.0000000e+00   0.0000000e+00   0.0000000e+00   0.0000000e+00   0.0000000e+00   0.0000000e+00   0.0000000e+00   0.0000000e+00
   0.0000000e+00   0.0000000e+00   0.0000000e+00   0.0000000e+00   0.0000000e+00   0.0000000e+00   0.0000000e+00   0.0000000e+00   0.0000000e+00   0.0000000e+00   0.0000000e+00   0.0000000e+00   0.0000000e+00   0.0000000e+00   0.0000000e+00   0.0000000e+00
  -2.0625113e-02  -6.5277247e-02  -7.8756029e-02  -2.0937541e-02   2.1984824e-01   1.0583862e-01  -4.5301312e-01  -2.2752066e-01  -5.7831894e-01   1.2297620e-02  -5.2822599e-01  -1.0601234e+00   8.8940205e-01   7.4628460e-02  -2.6761149e-01  -4.4282329e-03
   3.4696056e-02   1.2256008e-01   8.8515315e-02  -4.8819756e-02  -1.2739432e-01  -1.5188665e-01   4.4619150e-01  -2.3937139e-01   4.5717585e-01   1.6169663e-01   2.9864204e-01   7.6280486e-01  -1.0735793e+00   2.3723556e-01   5.1233649e-03   2.1959558e-01
   1.4562148e-02   3.8963511e-02  -1.1148103e-02   4.8675735e-01   6.3420813e-02   4.2997402e-01  -2.3755574e-01   1.0040529e-01   1.1743360e+00  -7.2250393e-01   5.6268974e-01   9.3245388e-01  -6.5452935e-01  -2.4821049e-01  -5.9705090e-01   1.8737924e+00
  -1.3859658e-02   1.1451253e-02  -1.2583965e-02   2.5389486e-01  -1.3204165e-01  -1.4812662e-01   2.7630942e-01   4.6810897e-01   3.6560849e-01  -8.7681615e-01   1.9876899e-01   1.8662256e-01   3.4512295e-01   4.8596546e-01  -5.7850548e-02  -1.0315665e+00
   0.0000000e+00   0.0000000e+00   0.0000000e+00   0.0000000e+00   0.0000000e+00   0.0000000e+00   0.0000000e+00   0.0000000e+00   0.0000000e+00   0.0000000e+00   0.0000000e+00   0.0000000e+00   0.0000000e+00   0.0000000e+00   0.0000000e+00   0.0000000e+00
   0.0000000e+00   0.0000000e+00   0.0000000e+00   0.0000000e+00   0.0000000e+00   0.0000000e+00   0.0000000e+00   0.0000000e+00   0.0000000e+00   0.0000000e+00   0.0000000e+00   0.0000000e+00   0.0000000e+00   0.0000000e+00   0.0000000e+00   0.0000000e+00
   0.0000000e+00   0.0000000e+00   0.0000000e+00   0.0000000e+00   0.0000000e+00   0.0000000e+00   0.0000000e+00   0.0000000e+00   0.0000000e+00   0.0000000e+00   0.0000000e+00   0.0000000e+00   0.0000000e+00   0.0000000e+00   0.0000000e+00   0.0000000e+00
   0.0000000e+00   0.0000000e+00   0.0000000e+00   0.0000000e+00   0.0000000e+00   0.0000000e+00   0.0000000e+00   0.0000000e+00   0.0000000e+00   0.0000000e+00   0.0000000e+00   0.0000000e+00   0.0000000e+00   0.0000000e+00   0.0000000e+00   0.0000000e+00
   0.0000000e+00   0.0000000e+00   0.0000000e+00   0.0000000e+00   0.0000000e+00   0.0000000e+00   0.0000000e+00   0.0000000e+00   0.0000000e+00   0.0000000e+00   0.0000000e+00   0.0000000e+00   0.0000000e+00   0.0000000e+00   0.0000000e+00   0.0000000e+00
   0.0000000e+00   0.0000000e+00   0.0000000e+00   0.0000000e+00   0.0000000e+00   0.0000000e+00   0.0000000e+00   0.0000000e+00   0.0000000e+00   0.0000000e+00   0.0000000e+00   0.0000000e+00   0.0000000e+00   0.0000000e+00   0.0000000e+00   0.0000000e+00
  -2.7212986e-02  -1.1068412e-01  -6.0897868e-02  -1.6068907e-01   9.4509250e-02   7.6642655e-03  -3.2302621e-01  -4.9635781e-02  -5.0769912e-01   1.6474566e-01  -3.9191224e-01  -1.0669859e+00   9.9228378e-01  -1.4392921e-01  -5.3433785e-01   1.7757451e-01
   2.8378481e-02   1.2260403e-01   9.1116617e-02  -1.7156841e-01  -1.5613912e-01  -2.1706883e-01   5.9484222e-01  -1.5590887e-01   5.9247902e-01   2.5474968e-01   2.2453468e-01   1.0983141e+00  -1.2537014e+00   3.0973349e-01   1.2033346e-01  -6.4275459e-02
   8.7440351e-03  -1.8784961e-03   6.9986877e-03   4.3267700e-01  -3.5258188e-02   4.1928747e-01  -1.6643916e-01   2.0251805e-01   1.4134886e+00  -7.7075076e-01   6.4997801e-01   9.1970119e-01  -5.3900572e-01  -4.4449040e-01  -9.0813221e-01   2.0590123e+00
  -2.5800138e-02   6.2806540e-02  -3.7160977e-02   2.9388166e-01  -1.0583073e-01  -2.3068884e-01   4.7759077e-01   7.0294163e-01   4.2846799e-01  -1.1137078e+00   1.7122245e-01   4.8447404e-01   4.7846146e-01   5.2151480e-01  -2.5040040e-02  -1.6315501e+00
   0.0000000e+00   0.0000000e+00   0.0000000e+00   0.0000000e+00   0.0000000e+00   0.0000000e+00   0.0000000e+00   0.0000000e+00   0.0000000e+00   0.0000000e+00   0.0000000e+00   0.0000000e+00   0.0000000e+00   0.0000000e+00   0.0000000e+00   0.0000000e+00
   0.0000000e+00   0.0000000e+00   0.0000000e+00   0.0000000e+00   0.0000000e+00   0.0000000e+00   0.0000000e+00   0.0000000e+00   0.0000000e+00   0.0000000e+00   0.0000000e+00   0.0000000e+00   0.0000000e+00   0.0000000e+00   0.0000000e+00   0.0000000e+00
   0.0000000e+00   0.0000000e+00   0.0000000e+00   0.0000000e+00   0.0000000e+00   0.0000000e+00   0.0000000e+00   0.0000000e+00   0.0000000e+00   0.0000000e+00   0.0000000e+00   0.0000000e+00   0.0000000e+00   0.0000000e+00   0.0000000e+00   0.0000000e+00
   0.0000000e+00   0.0000000e+00   0.0000000e+00   0.0000000e+00   0.0000000e+00   0.0000000e+00   0.0000000e+00   0.0000000e+00   0.0000000e+00   0.0000000e+00   0.0000000e+00   0.0000000e+00   0.0000000e+00   0.0000000e+00   0.0000000e+00   0.0000000e+00
   0.0000000e+00   0.0000000e+00   0.0000000e+00   0.0000000e+00   0.0000000e+00   0.0000000e+00   0.0000000e+00   0.0000000e+00   0.0000000e+00   0.0000000e+00   0.0000000e+00   0.0000000e+00   0.0000000e+00   0.0000000e+00   0.0000000e+00   0.0000000e+00
   0.0000000e+00   0.0000000e+00   0.0000000e+00   0.0000000e+00   0.0000000e+00   0.0000000e+00   0.0000000e+00   0.0000000e+00   0.0000000e+00   0.0000000e+00   0.0000000e+00   0.0000000e+00   0.0000000e+00   0.0000000e+00   0.0000000e+00   0.0000000e+00
  -2.9542571e-02  -1.6115189e-01  -2.9267210e-02  -3.0673691e-01  -9.6958053e-02  -1.0070158e-01  -1.1474829e-01   1.9930510e-01  -2.5282136e-01   3.3938600e-01  -1.3050117e-01  -8.2012503e-01   9.1807902e-01  -4.0427677e-01  -8.1722725e-01   3.6374943e-01
   1.8209886e-02   9.5280383e-02   7.7940869e-02  -2.8944738e-01  -2.0023273e-01  -2.6388825e-01   7.0564120e-01   4.0250613e-03   7.0284376e-01   3.2339699e-01   1.6599909e-01   1.3981617e+00  -1.3008020e+00   3.0601709e-01   1.6540276e-01  -3.1103514e-01
   1.7358181e-03  -4.5297008e-02   1.8577199e-02   3.1701863e-01  -1.2041206e-01   3.7420649e-01  -7.4541767e-02   2.9949714e-01   1.4968255e+00  -7.2971804e-01   6.3174399e-01   8.4411403e-01  -3.7831726e-01  -6.4994006e-01  -1.1406302e+00   2.0294934e+00
  -3.2380301e-02   1.0166145e-01  -5.4961894e-02   2.8649435e-01  -8.5092178e-02  -3.0651688e-01   6.2691860e-01   8.4967268e-01   5.0666231e-01  -1.1894562e+00   1.7867779e-01   7.5508072e-01   5.5746653e-01   5.5168019e-01  -2.2725842e-02  -2.0615087e+00
   0.0000000e+00   0.0000000e+00   0.0000000e+00   0.0000000e+00   0.0000000e+00   0.0000000e+00   0.0000000e+00   0.0000000e+00   0.0000000e+00   0.0000000e+00   0.0000000e+00   0.0000000e+00   0.0000000e+00   0.0000000e+00   0.0000000e+00   0.0000000e+00
   0.0000000e+00   0.0000000e+00   0.0000000e+00   0.0000000e+00   0.0000000e+00   0.0000000e+00   0.0000000e+00   0.0000000e+00   0.0000000e+00   0.0000000e+00   0.0000000e+00   0.0000000e+00   0.0000000e+00   0.0000000e+00   0.0000000e+00   0.0000000e+00
   0.0000000e+00   0.0000000e+00   0.0000000e+00   0.0000000e+00   0.0000000e+00   0.0000000e+00   0.0000000e+00   0.0000000e+00   0.0000000e+00   0.0000000e+00   0.0000000e+00   0.0000000e+00   0.0000000e+00   0.0000000e+00   0.0000000e+00   0.0000000e+00
   0.0000000e+00   0.0000000e+00   0.0000000e+00   0.0000000e+00   0.0000000e+00   0.0000000e+00   0.0000000e+00   0.0000000e+00   0.0000000e+00   0.0000000e+00   0.0000000e+00   0.0000000e+00   0.0000000e+00   0.0000000e+00   0.0000000e+00   0.0000000e+00
   0.0000000e+00   0.0000000e+00   0.0000000e+00   0.0000000e+00   0.0000000e+00   0.0000000e+00   0.0000000e+00   0.0000000e+00   0.0000000e+00   0.0000000e+00   0.0000000e+00   0.0000000e+00   0.0000000e+00   0.0000000e+00   0.0000000e+00   0.0000000e+00
   0.0000000e+00   0.0000000e+00   0.0000000e+00   0.0000000e+00   0.0000000e+00   0.0000000e+00   0.0000000e+00   0.0000000e+00   0.0000000e+00   0.0000000e+00   0.0000000e+00   0.0000000e+00   0.0000000e+00   0.0000000e+00   0.0000000e+00   0.0000000e+00
  -2.5123071e-02  -1.9744950e-01   1.4470239e-02  -4.0041214e-01  -3.1267185e-01  -1.8391824e-01   1.2791438e-01   4.3426558e-01   1.3758851e-01   4.7782258e-01   1.9661803e-01  -3.5624918e-01   6.2679452e-01  -6.5293495e-01  -1.0117060e+00   5.2568857e-01
   5.8629343e-03   3.7223414e-02   4.1760917e-02  -3.6434093e-01  -2.3593236e-01  -2.6434172e-01   7.1062965e-01   2.1906439e-01   7.0212751e-01   3.2726589e-01   1.2918224e-01   1.5464284e+00  -1.1272535e+00   2.5309952e-01   1.3774929e-01  -4.9389057e-01
  -8.5338972e-03  -7.9497026e-02   1.7051196e-02   1.2638010e-01  -1.6079133e-01   2.7615690e-01   4.0029837e-02   3.7843191e-01   1.3444627e+00  -5.9328544e-01   4.4120359e-01   6.7757115e-01  -1.1179110e-01  -8.0257494e-01  -1.2400810e+00   1.6475651e+00
  -2.9344050e-02   1.1318162e-01  -6.0123976e-02   2.1935981e-01  -6.8943010e-02  -3.4548209e-01   6.5655110e-01   8.1653378e-01   5.6295615e-01  -1.0125453e+00   2.1456660e-01   8.9628204e-01   5.2040265e-01   5.3274322e-01  -5.4012730e-02  -2.1236185e+00
   0.0000000e+00   0.0000000e+00   0.0000000e+00   0.0000000e+00   0.0000000e+00   0.0000000e+00   0.0000000e+00   0.0000000e+00   0.0000000e+00   0.0000000e+00   0.0000000e+00   0.0000000e+00   0.0000000e+00   0.0000000e+00   0.0000000e+00   0.0000000e+00
   0.0000000e+00   0.0000000e+00   0.0000000e+00   0.0000000e+00   0.0000000e+00   0.0000000e+00   0.0000000e+00   0.0000000e+00   0.0000000e+00   0.0000000e+00   0.0000000e+00   0.0000000e+00   0.0000000e+00   0.0000000e+00   0.0000000e+00   0.0000000e+00
   0.0000000e+00   0.0000000e+00   0.0000000e+00   0.0000000e+00   0.0000000e+00   0.0000000e+00   0.0000000e+00   0.0000000e+00   0.0000000e+00   0.0000000e+00   0.0000000e+00   0.0000000e+00   0.0000000e+00   0.0000000e+00   0.0000000e+00   0.0000000e+00
   0.0000000e+00   0.0000000e+00   0.0000000e+00   0.0000000e+00   0.0000000e+00   0.0000000e+00   0.0000000e+00   0.0000000e+00   0.0000000e+00   0.0000000e+00   0.0000000e+00   0.0000000e+00   0.0000000e+00   0.0000000e+00   0.0000000e+00   0.0000000e+00
   0.0000000e+00   0.0000000e+00   0.0000000e+00   0.0000000e+00   0.0000000e+00   0.0000000e+00   0.0000000e+00   0.0000000e+00   0.0000000e+00   0.0000000e+00   0.0000000e+00   0.0000000e+00   0.0000000e+00   0.0000000e+00   0.0000000e+00   0.0000000e+00
   0.0000000e+00   0.0000000e+00   0.0000000e+00   0.0000000e+00   0.0000000e+00   0.0000000e+00   0.0000000e+00   0.0000000e+00   0.0000000e+00   0.0000000e+00   0.0000000e+00   0.0000000e+00   0.0000000e+00   0.0000000e+00   0.0000000e+00   0.0000000e+00
  -1.2687579e-02  -1.8588559e-01   6.6139328e-02  -3.6885857e-01  -4.7124866e-01  -2.0337376e-01   3.3845159e-01   5.2486578e-01   5.4015674e-01   4.9778177e-01   4.7699989e-01   2.0953253e-01   1.1945110e-01  -7.9538442e-01  -9.5165783e-01   6.1409638e-01
  -7.3086085e-03  -4.7919219e-02  -2.5275733e-02  -3.5078618e-01  -2.1771367e-01  -1.8913910e-01   5.2595825e-01   4.4828780e-01   4.5547239e-01   2.1463452e-01   1.0202354e-01   1.3727938e+00  -6.1766834e-01   1.9973477e-01   6.6809367e-02  -6.0143038e-01
  -2.5076716e-02  -9.0468655e-02  -4.3696991e-03  -1.5692975e-01  -1.2342784e-01   9.7271987e-02   1.8508329e-01   4.2838061e-01   8.8084647e-01  -3.6174737e-01   9.0001925e-03   3.9071279e-01   3.3838992e-01  -8.1990371e-01  -1.1554491e+00   7.5807117e-01
  -1.2560974e-02   8.4201453e-02  -4.7561418e-02   8.1813795e-02  -4.4752307e-02  -3.1054943e-01   4.8550341e-01   4.9688025e-01   5.2202522e-01  -4.8414730e-01   2.5289370e-01   7.7456404e-01   3.0647318e-01   4.0699886e-01  -1.0300702e-01  -1.6021619e+00
   0.0000000e+00   0.0000000e+00   0.0000000e+00   0.0000000e+00   0.0000000e+00   0.0000000e+00   0.0000000e+00   0.0000000e+00   0.0000000e+00   0.0000000e+00   0.0000000e+00   0.0000000e+00   0.0000000e+00   0.0000000e+00   0.0000000e+00   0.0000000e+00
   0.0000000e+00   0.0000000e+00   0.0000000e+00   0.0000000e+00   0.0000000e+00   0.0000000e+00   0.0000000e+00   0.0000000e+00   0.0000000e+00   0.0000000e+00   0.0000000e+00   0.0000000e+00   0.0000000e+00   0.0000000e+00   0.0000000e+00   0.0000000e+00
   0.0000000e+00   0.0000000e+00   0.0000000e+00   0.0000000e+00   0.0000000e+00   0.0000000e+00   0.0000000e+00   0.0000000e+00   0.0000000e+00   0.0000000e+00   0.0000000e+00   0.0000000e+00   0.0000000e+00   0.0000000e+00   0.0000000e+00   0.0000000e+00
   0.0000000e+00   0.0000000e+00   0.0000000e+00   0.0000000e+00   0.0000000e+00   0.0000000e+00   0.0000000e+00   0.0000000e+00   0.0000000e+00   0.0000000e+00   0.0000000e+00   0.0000000e+00   0.0000000e+00   0.0000000e+00   0.0000000e+00   0.0000000e+00
   0.0000000e+00   0.0000000e+00   0.0000000e+00   0.0000000e+00   0.0000000e+00   0.0000000e+00   0.0000000e+00   0.0000000e+00   0.0000000e+00   0.0000000e+00   0.0000000e+00   0.0000000e+00   0.0000000e+00   0.0000000e+00   0.0000000e+00   0.0000000e+00
   0.0000000e+00   0.0000000e+00   0.0000000e+00   0.0000000e+00   0.0000000e+00   0.0000000e+00   0.0000000e+00   0.0000000e+00   0.0000000e+00   0.0000000e+00   0.0000000e+00   0.0000000e+00   0.0000000e+00   0.0000000e+00   0.0000000e+00   0.0000000e+00
   7.0480182e-03  -7.7726758e-02   1.1905671e-01  -1.3367973e-01  -4.5102811e-01  -1.2680744e-01   4.3448537e-01   3.0206160e-01   7.5760386e-01   2.9691444e-01   5.4634801e-01   6.7985676e-01  -5.5075561e-01  -6.9020768e-01  -4.1441099e-01   5.5310018e-01
  -2.0747940e-02  -1.4828131e-01  -1.3123636e-01  -2.0164889e-01  -7.7751437e-02  -1.4012913e-02   5.9011092e-02   6.3557206e-01  -2.1786918e-01  -7.4226206e-02   5.3123884e-02   6.5520701e-01   3.7134633e-01   2.1739247e-01   1.5100531e-02  -6.4640380e-01
  -5.1620653e-02  -6.3849297e-02  -5.2248942e-02  -5.5454932e-01   2.1615817e-02  -1.9941615e-01   3.7476674e-01   4.4195033e-01   4.5675143e-02  -4.1129987e-02  -7.3038661e-01  -4.3202801e-02   1.0593219e+00  -6.0364331e-01  -8.4785136e-01  -7.9916695e-01
   2.1426648e-02   5.2337411e-03  -1.3708756e-02  -1.3662861e-01   1.3854021e-02  -1.6236502e-01   2.5219329e-02  -2.2302235e-01   2.6780684e-01   4.9637466e-01   2.4669664e-01   2.3026330e-01  -1.3319887e-01   1.1075374e-01  -1.3420649e-01  -2.8493368e-01
   0.0000000e+00   0.0000000e+00   0.0000000e+00   0.0000000e+00   0.0000000e+00   0.0000000e+00   0.0000000e+00   0.0000000e+00   0.0000000e+00   0.0000000e+00   0.0000000e+00   0.0000000e+00   0.0000000e+00   0.0000000e+00   0.0000000e+00   0.0000000e+00
   0.0000000e+00   0.0000000e+00   0.0000000e+00   0.0000000e+00   0.0000000e+00   0.0000000e+00   0.0000000e+00   0.0000000e+00   0.0000000e+00   0.0000000e+00   0.0000000e+00   0.0000000e+00   0.0000000e+00   0.0000000e+00   0.0000000e+00   0.0000000e+00
   0.0000000e+00   0.0000000e+00   0.0000000e+00   0.0000000e+00   0.0000000e+00   0.0000000e+00   0.0000000e+00   0.0000000e+00   0.0000000e+00   0.0000000e+00   0.0000000e+00   0.0000000e+00   0.0000000e+00   0.0000000e+00   0.0000000e+00   0.0000000e+00
   0.0000000e+00   0.0000000e+00   0.0000000e+00   0.0000000e+00   0.0000000e+00   0.0000000e+00   0.0000000e+00   0.0000000e+00   0.0000000e+00   0.0000000e+00   0.0000000e+00   0.0000000e+00   0.0000000e+00   0.0000000e+00   0.0000000e+00   0.0000000e+00
   0.0000000e+00   0.0000000e+00   0.0000000e+00   0.0000000e+00   0.0000000e+00   0.0000000e+00   0.0000000e+00   0.0000000e+00   0.0000000e+00   0.0000000e+00   0.0000000e+00   0.0000000e+00   0.0000000e+00   0.0000000e+00   0.0000000e+00   0.0000000e+00
   0.0000000e+00   0.0000000e+00   0.0000000e+00   0.0000000e+00   0.0000000e+00   0.0000000e+00   0.0000000e+00   0.0000000e+00   0.0000000e+00   0.0000000e+00   0.0000000e+00   0.0000000e+00   0.0000000e+00   0.0000000e+00   0.0000000e+00   0.0000000e+00
   3.0917059e-02   1.8879582e-01   1.6426738e-01   3.7919053e-01  -9.6093256e-02   6.1167054e-02   3.2744204e-01  -4.2955950e-01   5.3325065e-01  -2.4108306e-01   1.9702979e-01   7.8191205e-01  -1.2764901e+00  -1.4750132e-01   8.6162457e-01   2.3835127e-01
  -3.5013293e-02  -2.4401457e-01  -2.8393330e-01   1.2552133e-01   2.7056672e-01   2.7343141e-01  -7.8250892e-01   7.1705360e-01  -1.5330408e+00  -6.0251655e-01  -6.5723856e-02  -8.7011314e-01   2.0056642e+00   3.9935546e-01   7.1778216e-02  -6.7228798e-01
  -9.2250474e-02   1.2991174e-02  -1.3249507e-01  -1.0905925e+00   2.9666242e-01  -6.5812776e-01   6.2839243e-01   4.1557072e-01  -1.1966980e+00   3.5798158e-01  -1.8326435e+00  -6.4532307e-01   2.1375703e+00  -4.6603736e-02  -2.9826480e-01  -3.1733479e+00
   7.4905618e-02  -1.2815018e-01   4.2916115e-02  -4.4827521e-01   1.4646810e-01   1.3490294e-01  -8.1286991e-01  -1.4540677e+00  -3.5253269e-01   2.0253333e+00   1.2949087e-01  -9.1323279e-01  -8.2579946e-01  -4.1581228e-01  -9.7245414e-02   2.0134598e+00
   0.0000000e+00   0.0000000e+00   0.0000000e+00   0.0000000e+00   0.0000000e+00   0.0000000e+00   0.0000000e+00   0.0000000e+00   0.0000000e+00   0.0000000e+00   0.0000000e+00   0.0000000e+00   0.0000000e+00   0.0000000e+00   0.0000000e+00   0.0000000e+00
   0.0000000e+00   0.0000000e+00   0.0000000e+00   0.0000000e+00   0.0000000e+00   0.0000000e+00   0.0000000e+00   0.0000000e+00   0.0000000e+00   0.0000000e+00   0.0000000e+00   0.0000000e+00   0.0000000e+00   0.0000000e+00   0.0000000e+00   0.0000000e+00
   0.0000000e+00   0.0000000e+00   0.0000000e+00   0.0000000e+00   0.0000000e+00   0.0000000e+00   0.0000000e+00   0.0000000e+00   0.0000000e+00   0.0000000e+00   0.0000000e+00   0.0000000e+00   0.0000000e+00   0.0000000e+00   0.0000000e+00   0.0000000e+00
   0.0000000e+00   0.0000000e+00   0.0000000e+00   0.0000000e+00   0.0000000e+00   0.0000000e+00   0.0000000e+00   0.0000000e+00   0.0000000e+00   0.0000000e+00   0.0000000e+00   0.0000000e+00   0.0000000e+00   0.0000000e+00   0.0000000e+00   0.0000000e+00
   0.0000000e+00   0.0000000e+00   0.0000000e+00   0.0000000e+00   0.0000000e+00   0.0000000e+00   0.0000000e+00   0.0000000e+00   0.0000000e+00   0.0000000e+00   0.0000000e+00   0.0000000e+00   0.0000000e+00   0.0000000e+00   0.0000000e+00   0.0000000e+00
   0.0000000e+00   0.0000000e+00   0.0000000e+00   0.0000000e+00   0.0000000e+00   0.0000000e+00   0.0000000e+00   0.0000000e+00   0.0000000e+00   0.0000000e+00   0.0000000e+00   0.0000000e+00   0.0000000e+00   0.0000000e+00   0.0000000e+00   0.0000000e+00
   5.3258344e-02   6.8384770e-01   1.9096966e-01   1.2302511e+00   7.7118960e-01   3.4961532e-01  -6.6575539e-02  -1.8757841e+00  -4.2219572e-01  -1.2387522e+00  -8.0696056e-01   1.8421196e-01  -1.9054076e+00   1.0672520e+00   3.1482495e+00  -4.5856707e-01
  -5.1852114e-02  -3.0906733e-01  -4.9043397e-01   6.6261127e-01   9.2522374e-01   6.6754929e-01  -2.0808596e+00   6.3047231e-01  -3.7204586e+00  -1.4316838e+00  -3.1370756e-01  -3.4921436e+00   4.4617381e+00   8.5747835e-01   3.3928959e-01  -7.5566534e-01
  -1.5096928e-01   1.4901720e-01  -2.5003811e-01  -1.7891933e+00   7.1295044e-01  -1.3269199e+00   9.6760071e-01   3.4813551e-01  -2.8513806e+00   8.2189131e-01  -3.3389816e+00  -1.4301344e+00   3.6492629e+00   9.5912608e-01   4.8754401e-01  -6.4846944e+00
   1.4862105e-01  -3.1482579e-01   1.2139503e-01  -8.6916661e-01   4.0266842e-01   6.0736305e-01  -2.1088108e+00  -3.2933940e+00  -1.5179258e+00   4.1884576e+00  -1.8026226e-01  -2.8370577e+00  -1.7701986e+00  -1.2184557e+00   6.3235849e-02   5.4296555e+00
