   7.1338221e-02   1.2587281e-01   7.0764284e-02   4.3350453e-02  -6.6899008e-02   1.1623199e-01  -1.3711895e-01   8.3723511e-02   3.3231606e-02   4.8924655e-02  -5.0812956e-01   3.0169731e-01   1.0872597e-01  -2.2352006e-01   5.3048654e-02  -6.4743167e-01   7.5186270e-02   1.1198613e+00   2.4079118e-01   1.8986612e-01   2.8644185e-01   8.8341819e-01  -1.5350465e-01   7.0650641e-01  -8.3244629e-01  -6.0464473e-01
  -8.5973929e-02  -1.8509232e-01  -1.0495890e-01  -1.5750858e-02   2.1695511e-01  -2.2444823e-01  -9.6360232e-02   2.6569966e-01  -3.3891517e-02   4.1596663e-01   3.4005078e-01  -5.9139391e-01   2.4862246e-02  -1.0686201e+00  -1.5795747e-01   6.5613405e-02  -1.1734789e+00   5.2638530e-01  -4.2311880e-01   1.3094781e+00   1.0789072e+00   1.1451046e+00  -3.7043120e-01  -5.4230561e-01  -4.6006318e-01  -8.3435871e-01
   7.1492670e-02   2.6951401e-01   1.8288298e-01  -8.9846773e-02  -1.4505831e-01  -1.0144521e-01  -1.4170468e-01  -3.4697944e-01  -4.2802969e-01  -1.8086427e-01   9.1819656e-02   2.0024237e-01  -6.6568747e-01   2.1448544e-01  -4.8744340e-01   3.1490341e-01   8.2521549e-02   5.0932481e-01  -8.4948640e-01   3.1931841e-01  -6.6303320e-02   9.7888149e-01  -2.4078733e-01   7.2065298e-01   7.4963040e-01   2.6676359e-01
   1.0448161e-02   4.9155052e-02   2.3998301e-02  -1.7796545e-03  -2.4176219e-02  -5.5095662e-02   7.1962109e-02  -1.5456531e-01  -6.7243198e-02  -1.9877696e-01  -1.0935559e-01  -5.0247108e-01   5.8886163e-01   2.5279775e-01   3.9483277e-01  -1.9449604e-01  -3.8952639e-01   6.0981459e-02   1.0250340e+00  -2.8149226e-02   1.2651853e-01   2.5515853e-01   1.6138657e+00   8.5706476e-02  -1.9169644e-01  -6.5417412e-01
  -8.0426677e-03   2.0918464e-02   7.1430132e-02  -5.7486410e-03   7.7502383e-02  -2.1886935e-01   1.2501809e-01   1.2016139e-01  -1.7704499e-01   1.0178215e-01  -3.2717285e-01   2.7979467e-01  -1.5975177e-03  -7.5118169e-03   9.5790478e-02   2.2695961e-01   6.3183511e-01  -4.4709995e-01   1.1747228e+00   1.0477720e-01   6.5413209e-01   2.9275282e-01  -1.1017584e+00   2.4161059e-01   5.0149476e-01  -7.2438634e-01
  -2.0638654e-02   3.0057935e-02   2.8387473e-02  -9.5577223e-03  -2.6511437e-02  -3.1371652e-02  -4.0146284e-02   4.6959450e-03  -1.0809112e-01   3.8228262e-01   3.7968773e-01  -2.8694182e-01  -5.5329514e-01   1.0753542e-01   8.0281967e-01  -6.0097663e-01   1.5176347e-01  -9.3433997e-02   2.0893290e-01  -2.1065598e-01  -8.1292058e-03  -4.9038745e-01   2.8643188e-01  -4.4235583e-01  -1.0294365e+00  -1.0547244e+00
  -4.1674930e-03  -3.3175282e-02  -8.1094682e-02  -1.4918320e-01  -5.5664743e-02  -9.9192122e-02  -2.0555977e-01   8.2742477e-02   3.8615491e-02  -1.0437958e-01   3.6563597e-01  -3.1623781e-01   2.3790538e-01   3.6606760e-01  -4.2780476e-01   4.9401028e-01   1.0893386e+00  -2.9518278e-01  -8.4564938e-01  -4.1421230e-01   1.0594187e-01  -1.1639242e+00   3.9977977e-01   1.8604520e+00  -1.2715258e+00  -1.5081170e+00
  -3.1573055e-02  -1.4964323e-02  -2.9553067e-02   5.1499438e-02  -7.4637056e-02  -3.6129898e-02  -3.3295276e-02  -1.2432219e-01   7.7411174e-02  -6.7138124e-01  -2.9345484e-01   3.8750786e-01   2.0393621e-01   5.9102568e-01   6.7839804e-01  -2.7841417e-01   1.6705088e-01   1.8491131e-01  -6.0668506e-01   1.0635358e+00   1.7277488e+00  -1.9555188e-01   7.3061596e-01   1.7213814e+00   1.1127216e+00   2.0536571e-02
   7.1643273e-02   1.2107553e-01  -6.3508897e-02  -8.6507463e-02  -3.8346568e-02   1.5217719e-01  -1.5195009e-01  -1.0988895e-01  -2.7751295e-01  -3.2088573e-01  -3.0074800e-01  -9.0334825e-01  -5.1355890e-01   7.4332138e-01   5.6516422e-01   7.3143640e-01  -9.6350934e-02  -5.0039939e-01  -3.2481435e-01  -3.4234599e-01   1.5743754e+00   9.7460339e-01  -1.5849196e+00  -5.7074061e-01   1.1574325e-01   6.8869486e-01
   9.1865526e-02  -5.1400824e-02   9.8423986e-02  -5.7672462e-02   1.1518668e-01  -3.7504227e-02  -7.8714578e-02  -2.0497630e-02  -1.8149287e-01  -5.6158285e-01   2.8137198e-01  -3.2950851e-02  -9.6853461e-01   4.0333694e-01  -5.4773637e-01   4.0374512e-03  -1.1525942e-01   8.9062485e-01   9.3154220e-01   2.2428694e-01  -4.7838807e-01  -3.0505662e-03   5.6479476e-01   4.4599495e-01   8.0306982e-01  -1.7234205e+00
   3.0190462e-02   3.5762467e-02   2.2199891e-02   4.5956306e-02  -3.3213337e-02   6.8356427e-02  -9.3922280e-02   1.2140915e-01   8.1094872e-02   1.0726227e-01  -3.2426740e-01   2.2212587e-01   1.9449957e-01  -3.4344805e-01  -1.6150157e-02  -5.2388557e-01  -1.4415347e-01   9.2635721e-01   7.5246899e-02   2.0843979e-01   1.9176898e-01   5.2227565e-01   2.8910015e-02   4.4190683e-01  -6.7684850e-01  -5.5592874e-01
  -2.4364810e-02  -4.5540172e-02  -3.9549568e-02  -3.2898449e-02   1.2554451e-01  -1.3945139e-01  -1.3751378e-01   1.1162979e-01  -1.2155177e-01   2.1338756e-01   1.9807153e-01  -4.8899004e-01  -1.6230047e-01  -6.0272249e-01  -1.2880506e-01   4.6808404e-02  -7.5987307e-01   4.9558642e-01  -4.9010419e-01   8.5964725e-01   8.5480614e-01   1.1183395e+00  -4.1202214e-01  -2.7375939e-01  -3.5781219e-01  -4.2931459e-01
   9.2602308e-03   1.2023584e-01   1.0695579e-01  -5.2049051e-02  -5.7363813e-02  -1.5319740e-01  -8.7750151e-02  -1.7395520e-01  -2.3473615e-01  -1.0627659e-02   1.6003627e-01   1.1686949e-01  -3.1697650e-01  -1.2829911e-01  -2.7127780e-01   1.5369500e-01  -1.0511683e-01   3.2918754e-01  -6.4880292e-01   4.5846489e-01   2.8425064e-02   6.5417286e-01  -3.0618510e-02   4.0740817e-01   3.3826531e-01  -3.8372806e-02
  -1.8738666e-02  -2.9685630e-02  -1.8515899e-02   9.8101169e-03   2.6941044e-02  -3.6147794e-02   2.5243546e-02   4.0827300e-04   5.2902506e-02  -1.2211271e-02   2.9055143e-02  -4.4904719e-02   1.3976824e-01  -7.2125840e-02  -1.5428869e-02  -1.1984712e-02  -1.4369741e-02  -1.1075987e-01   1.2440767e-02   1.5650441e-01   1.1680565e-01  -1.0224888e-01   1.4562653e-01   3.5907822e-03  -2.9350993e-02   8.6289736e-02
   1.1353849e-02   2.8778586e-02   2.3112606e-02  -1.7201229e-03  -5.4941310e-03  -1.5237129e-02   7.1311270e-03  -1.6551036e-02  -4.9060618e-02  -6.6005551e-02  -7.6546561e-02   5.3795768e-02   1.1481950e-02   4.2505925e-02  -3.5640816e-02   1.1082167e-01   1.7189854e-01   2.8409986e-02   8.0379691e-02  -4.4279589e-02   8.3007771e-02   6.4169754e-02  -9.0770010e-02   2.0008989e-01   1.4274848e-01   5.3465237e-02
  -6.0294730e-03  -3.9666464e-03  -1.2075163e-03  -6.0514779e-03   5.4584459e-04   6.3455255e-03  -2.5854463e-02   6.2659824e-03  -1.6187907e-02   6.2967632e-02   1.3694170e-01  -4.7957908e-02  -8.1188384e-02   1.7334317e-02   1.0569886e-01  -9.7236063e-02  -5.7031798e-02   4.7487604e-02  -1.1412140e-01   8.6847651e-04  -4.7713079e-02  -7.6247122e-02   7.7893058e-02  -1.3711504e-01  -4.1625431e-02  -2.3871493e-02
   7.0499416e-03  -2.0400484e-02  -4.5980821e-02  -1.0961926e-01  -6.4973526e-02  -8.0886491e-02  -1.5203703e-01   7.8219929e-02   7.6045626e-03   1.6053099e-03   2.4172645e-01  -9.4781257e-02   7.3646873e-02   8.6024008e-02  -3.1904938e-01   3.1937685e-01   6.0405003e-01  -1.1176608e-01  -2.5366272e-01  -2.6365421e-01  -1.9732868e-01  -5.6345042e-01   1.1186277e-01   5.8096720e-01  -6.4949557e-01  -7.7933452e-01
  -1.1894653e-02   1.2210764e-02  -8.0480449e-03   3.5667942e-02  -7.5836455e-02  -2.1599772e-02  -3.2957109e-02  -1.2435692e-01   6.0774271e-02  -3.5017232e-01  -2.9806905e-01   3.0251324e-01   1.4626951e-01   2.7366207e-01   3.8195360e-01  -1.9481222e-01   2.0477523e-02   1.2977392e-01  -3.3896698e-01   5.5627377e-01   7.3534042e-01   8.8817526e-03   2.3414935e-01   6.0827041e-01   5.8848337e-01   3.0582250e-01
   1.7642312e-02   1.2985679e-02  -1.0001722e-01  -5.3187715e-02   1.3700919e-02   7.9165921e-02  -8.5734962e-02  -2.6759197e-03  -1.5130943e-01  -6.1598864e-02  -1.3586180e-01  -6.7677034e-01  -1.4400297e-01   2.9273380e-01   4.0677564e-01   4.3754807e-01  -2.7556493e-01  -3.6316698e-01  -1.5459336e-01  -1.0842181e-01   9.8889714e-01   5.7771913e-01  -8.7363660e-01  -6.5593188e-01  -9.4073283e-02   3.5060720e-01
   5.9949464e-02  -6.7434957e-02   6.4130165e-02  -3.0532052e-02   1.1620204e-01  -4.4506196e-02  -6.7645358e-02  -2.7660239e-03  -1.7486874e-02  -4.3033729e-01   2.8236792e-01  -7.7685957e-02  -6.4124941e-01   1.9611541e-01  -4.1944565e-01  -8.7187740e-02   2.0433377e-03   4.9205500e-01   5.3466198e-01   1.7708097e-01  -4.7406091e-01  -1.2668876e-01   3.1025683e-01   2.6617429e-01   1.5612272e-01  -9.9705775e-01
   1.7060927e-02   6.8749771e-03   2.2157845e-03   3.8196095e-02  -3.0887120e-02   5.5143226e-02  -7.4917679e-02   1.0239149e-01   7.3824757e-02   9.7092886e-02  -2.0958014e-01   1.1684809e-01   1.8319747e-01  -3.1755090e-01  -4.8922910e-02  -4.1038688e-01  -2.9211326e-01   7.9966548e-01  -2.1924355e-02   1.3244211e-01   9.6411589e-02   3.2601577e-01   1.7541898e-01   2.3648197e-01  -5.0652649e-01  -4.5733418e-01
  -8.0834474e-03  -3.6570899e-03  -1.8907268e-02  -3.1620754e-02   9.1612851e-02  -1.0989475e-01  -1.4247208e-01   6.5641437e-02  -1.1712298e-01   1.4456847e-01   1.5503946e-01  -3.5616163e-01  -1.9993779e-01  -4.0977275e-01  -1.1309780e-01   1.2451435e-03  -4.6294381e-01   3.9371927e-01  -5.7808459e-01   6.2644450e-01   6.8349653e-01   8.8591413e-01  -4.1203214e-01  -1.0506710e-01  -3.1977025e-01  -2.0607925e-01
  -8.7120010e-03   6.5456118e-02   7.4511019e-02  -3.4184490e-02  -2.4908158e-02  -1.5270945e-01  -7.0883388e-02  -1.0877955e-01  -1.4503005e-01   3.4256135e-02   1.4567205e-01   1.4128028e-02  -1.4507796e-01  -2.1554361e-01  -9.1235089e-02   5.1833022e-02  -2.0441610e-01   2.4568313e-01  -4.5371176e-01   4.2568200e-01   8.6854470e-02   5.4527080e-01   1.0552538e-01   1.6994493e-01   8.7133840e-02  -1.5103278e-01
  -6.6438046e-03  -1.0456698e-02  -9.9491193e-03   3.8250068e-03   1.0895396e-02   3.2627473e-03  -1.3942505e-02   1.3261122e-02   4.5816831e-02   8.3371081e-03   3.4357173e-02   1.4552965e-01  -1.4916749e-01  -7.7789201e-02  -1.8458285e-01   8.1777074e-02   1.8971014e-01  -1.0371262e-01  -4.1036941e-01   8.7587185e-02   1.6349207e-03  -1.4832468e-01  -4.7479482e-01  -3.2704511e-03   9.2477946e-02   4.4448788e-01
   1.0390710e-02   8.8085287e-03  -1.0583475e-02   4.9080166e-03  -3.0325600e-02   7.2858566e-02  -4.9372690e-02  -4.4206469e-02   3.8850812e-02  -9.0478396e-02   5.2931977e-02  -4.2765064e-02   1.9389109e-02  -1.3871726e-02  -7.8700189e-02   5.5391235e-03  -8.2909463e-02   2.3987607e-01  -4.2995547e-01  -4.2162113e-02  -1.6620162e-01  -8.0797591e-02   3.4596801e-01   1.2049557e-01  -1.3011115e-01   3.4727149e-01
   2.1952346e-03  -1.7072041e-02  -1.2942689e-02  -2.9014110e-03   1.3395125e-02   1.8182592e-02  -9.4462428e-03   1.9933440e-03   2.7233765e-02  -1.0849364e-01  -1.7577812e-02   6.3940391e-02   1.6587732e-01  -5.0609770e-03  -2.3339306e-01   1.5937999e-01  -1.2757675e-01   5.8560528e-02  -2.0946844e-01   8.7032332e-02  -4.5367809e-02   1.2633139e-01  -3.6945834e-02   4.3060957e-02   4.1796445e-01   4.6117322e-01
   9.6975419e-03  -1.9137585e-02  -2.3644228e-02  -7.5184395e-02  -6.2765680e-02  -6.5397267e-02  -1.0059882e-01   8.3932503e-02  -5.4564090e-03   7.3834032e-02   1.5740496e-01   5.9313635e-02  -2.8964267e-02  -1.1811012e-01  -2.0710577e-01   1.7919550e-01   2.3862909e-01   1.3377831e-02   1.2755641e-01  -1.3117059e-01  -3.2006398e-01  -1.4274738e-01  -6.8765504e-02  -2.2453865e-01  -1.7761210e-01  -2.6525842e-01
  -6.6146088e-03   1.2167746e-02  -1.4468620e-03   2.5296528e-02  -6.2431280e-02  -1.6278898e-02  -2.1160045e-02  -9.4625757e-02   4.9141408e-02  -8.2512856e-02  -2.6719372e-01   2.3821546e-01   1.1808489e-01   6.6505791e-05   1.6279961e-01  -1.0818655e-01  -1.0258853e-01   7.4010221e-02  -1.5815483e-01   2.0409656e-01   5.4500397e-02   9.5339733e-02  -1.0503166e-01  -1.2609809e-01   2.1929657e-01   4.1085515e-01
   3.8119210e-03  -1.0282040e-02  -9.8630889e-02  -3.8463739e-02   2.0477862e-02   5.6287303e-02  -5.3851707e-02   1.1570197e-02  -1.1349409e-01   5.5709289e-02  -6.5791406e-02  -5.2510371e-01   5.2994856e-02   1.0914319e-01   2.9300891e-01   2.2914271e-01  -3.5621439e-01  -1.9357883e-01   6.5321503e-03  -4.2047137e-02   5.1785853e-01   4.0279641e-01  -2.9051887e-01  -6.3700922e-01  -2.0380459e-01   1.7388051e-01
   4.2924799e-02  -5.8773113e-02   4.4238876e-02  -1.2531741e-02   1.0169380e-01  -3.7531514e-02  -6.3826252e-02  -1.0324717e-02   8.0229075e-02  -3.4455593e-01   2.5523095e-01  -1.2739444e-01  -4.1256968e-01   8.5825382e-02  -2.9668101e-01  -1.2997864e-01   1.0593081e-01   1.8956578e-01   2.3970867e-01   1.0275972e-01  -4.3840459e-01  -1.5429956e-01   1.1016563e-01   1.2013252e-01  -2.8611022e-01  -4.0059071e-01
   1.0276355e-02  -7.4530725e-03  -9.1487583e-03   2.9319249e-02  -3.0159926e-02   4.7347089e-02  -6.1961673e-02   8.5002830e-02   5.6796805e-02   8.4280274e-02  -1.2615207e-01   3.9149562e-02   1.3366460e-01  -2.7507060e-01  -7.3952296e-02  -3.1065398e-01  -3.7359927e-01   6.8226640e-01  -8.8915687e-02   6.1052329e-02   3.5616366e-02   1.8358316e-01   2.1344192e-01   7.6743600e-02  -3.3693758e-01  -3.6114466e-01
  -2.8425159e-03   1.3454839e-02  -1.0302994e-02  -2.6570836e-02   7.0562379e-02  -9.4181226e-02  -1.3826412e-01   4.0349128e-02  -9.5476925e-02   1.0511547e-01   1.3862226e-01  -2.5703651e-01  -1.7904408e-01  -2.8943534e-01  -8.3453325e-02  -5.2463106e-02  -2.6010957e-01   3.0643586e-01  -6.2486759e-01   4.5875919e-01   5.2606344e-01   6.4018802e-01  -3.0781814e-01  -2.3780069e-03  -2.9381832e-01  -7.2739566e-02
  -1.5635467e-02   3.4948763e-02   5.4342649e-02  -2.2708943e-02  -4.3081870e-03  -1.4153670e-01  -6.5133653e-02  -6.5450104e-02  -8.8492273e-02   5.5671113e-02   1.1628818e-01  -4.6912461e-02  -6.1371013e-02  -2.4602434e-01   2.6336855e-02  -7.6633841e-03  -2.4079688e-01   1.7885282e-01  -3.2125237e-01   3.6895957e-01   1.4613062e-01   4.7607031e-01   1.0496280e-01  -1.4633658e-02  -5.5898081e-02  -1.7200517e-01
   5.8809029e-03   1.6157329e-02   6.3092713e-03  -2.2123154e-03  -1.1582648e-02   2.2488523e-02  -2.7560158e-02   2.6622561e-04   1.4592541e-02   1.6097487e-03   9.9708256e-03   2.1012914e-01  -2.6404955e-01  -2.9848276e-02  -2.1729997e-01   1.0932259e-01   2.6453344e-01  -6.2469857e-02  -4.8862671e-01  -1.4184785e-02  -1.1374814e-01  -1.2445763e-01  -6.2428128e-01   7.1816775e-03   1.5459593e-01   5.0017028e-01
   6.9709399e-03  -5.5580304e-03  -2.2688227e-02   8.5270243e-03  -3.1432741e-02   9.3617916e-02  -6.9789811e-02  -2.9336998e-02   7.1952076e-02  -6.0794726e-02   7.8556828e-02  -6.9866825e-02   1.4433416e-02  -6.7574239e-02  -5.8966672e-02  -7.7791663e-02  -1.8561131e-01   3.0716974e-01  -5.2443854e-01  -2.4363861e-03  -2.1182432e-01  -1.0981799e-01   4.4537583e-01   4.5741572e-02  -2.9237156e-01   3.4176467e-01
   4.5285963e-03  -1.8593304e-02  -1.4386642e-02  -4.0395478e-04   1.7979035e-02   1.3431170e-02   5.4409569e-03  -3.1363381e-03   3.9304393e-02  -1.6729325e-01  -9.0470492e-02   8.9759612e-02   2.4734332e-01   5.4088653e-03  -3.2455247e-01   2.4185599e-01  -1.0933453e-01  -2.6844646e-03  -1.7519224e-01   9.5049862e-02  -2.3487050e-02   1.7177186e-01  -8.8639001e-02   1.2047308e-01   5.1807067e-01   5.7270809e-01
   1.0160536e-02  -1.7117621e-02  -7.8093618e-03  -4.7871178e-02  -5.7820532e-02  -4.8219728e-02  -5.6722006e-02   8.3108395e-02  -1.2305567e-02   1.0278773e-01   9.6366863e-02   1.4392207e-01  -9.0025756e-02  -2.2919709e-01  -9.4745869e-02   6.8550447e-02  -1.7803195e-02   9.7319902e-02   3.4548965e-01  -3.6973528e-02  -3.1970960e-01   1.4167313e-01  -1.5078625e-01  -6.5274778e-01   1.5471796e-01   8.3780114e-02
  -4.6064970e-03   8.3022191e-03   1.0224398e-03   1.6407750e-02  -4.9294332e-02  -9.1151933e-03  -7.6677002e-03  -6.5104142e-02   2.8271555e-02   1.0566906e-01  -2.2511449e-01   1.7420430e-01   9.8264040e-02  -1.7965398e-01   2.1678106e-02  -2.6207793e-02  -1.9700319e-01   4.0230562e-02  -2.9242562e-02  -4.9398053e-02  -3.7447949e-01   1.2999171e-01  -2.7853765e-01  -5.4570412e-01  -1.8161478e-02   3.9862409e-01
  -1.3760822e-03  -1.6204048e-02  -8.9621401e-02  -2.9413824e-02   2.3563955e-02   4.3955816e-02  -3.2491863e-02   1.6015234e-02  -9.6672170e-02   1.3118744e-01  -2.6729948e-02  -3.8035448e-01   1.5535285e-01  -1.1158162e-03   1.8510831e-01   8.7903934e-02  -3.5650886e-01  -6.6574597e-02   9.9376960e-02  -1.1515498e-03   1.8053876e-01   2.7683482e-01   7.8251984e-02  -5.5677293e-01  -2.5613989e-01   7.6796982e-02
   3.0498027e-02  -4.7607910e-02   2.9126438e-02   6.4791634e-04   8.5641795e-02  -2.9493114e-02  -6.0024553e-02  -1.5678717e-02   1.3809461e-01  -2.7145943e-01   2.2180107e-01  -1.5866433e-01  -2.5146486e-01   7.4085008e-03  -1.9225862e-01  -1.3478012e-01   1.9207872e-01  -4.3223976e-02   1.9460788e-02   4.3787719e-02  -3.6966593e-01  -1.4439507e-01  -6.8484090e-02   1.0718899e-03  -5.5422787e-01   5.1046336e-02
   6.0608021e-03  -1.5327583e-02  -1.5359315e-02   2.1130140e-02  -2.7203511e-02   3.9550731e-02  -5.0981091e-02   7.6323727e-02   3.7797126e-02   7.4613402e-02  -6.7211512e-02  -7.5881690e-03   6.9199983e-02  -2.3266753e-01  -9.2995114e-02  -2.2719171e-01  -3.9749659e-01   5.6972493e-01  -1.2919441e-01   6.4832703e-03   1.1402296e-02   7.3979633e-02   1.6744627e-01  -3.4229326e-02  -1.7193224e-01  -2.8259071e-01
  -1.6693826e-03   2.0104843e-02  -6.8029531e-03  -2.0901928e-02   5.5512061e-02  -8.4735270e-02  -1.3105123e-01   2.3150488e-02  -7.2326136e-02   8.0088293e-02   1.3036540e-01  -1.8732989e-01  -1.3361256e-01  -2.0973665e-01  -4.9884638e-02  -1.0149577e-01  -1.3066985e-01   2.4160088e-01  -6.3177395e-01   3.3051592e-01   3.8182573e-01   4.2472951e-01  -1.5405250e-01   4.2364190e-02  -2.5772019e-01   9.7271506e-03
  -1.8142918e-02   1.5540153e-02   4.0378017e-02  -1.5028502e-02   1.0953071e-02  -1.2798967e-01  -6.4598125e-02  -3.1031662e-02  -5.1412100e-02   6.8086435e-02   8.6945136e-02  -7.2208581e-02  -3.0960651e-02  -2.5311297e-01   9.4141037e-02  -3.8542953e-02  -2.3617315e-01   1.2268921e-01  -2.4464840e-01   3.1209450e-01   2.0613363e-01   4.1244927e-01   2.2543642e-02  -1.4367034e-01  -1.1938639e-01  -1.5043217e-01
   1.2727884e-02   3.4497572e-02   2.0577351e-02  -5.5079289e-03  -2.8939534e-02   2.2950963e-02  -2.2102377e-02  -1.6265917e-02  -1.5764300e-02  -8.0209733e-03  -1.5504755e-02   2.0173135e-01  -2.5557977e-01   2.1421268e-02  -1.6814678e-01   9.4814189e-02   2.5397067e-01  -2.3653523e-02  -3.7227400e-01  -9.7216850e-02  -1.9248947e-01  -8.6633669e-02  -5.0032258e-01   2.2383443e-02   1.7104406e-01   3.7129648e-01
   4.5989286e-03  -1.1192141e-02  -1.9321918e-02   9.2771036e-03  -2.2090728e-02   7.6123976e-02  -6.8210404e-02   2.1983221e-03   6.5830299e-02  -1.3578744e-02   4.0510603e-02  -5.4708491e-02   7.1336186e-03  -1.0103609e-01  -1.2634250e-02  -1.3371223e-01  -1.9024230e-01   2.9796285e-01  -3.8008492e-01   3.7485742e-02  -1.4402522e-01  -6.1737507e-02   3.5787522e-01  -8.1082245e-03  -3.5088328e-01   1.8129186e-01
   2.9280681e-03  -1.3853022e-02  -1.0700455e-02   9.6363871e-04   1.7712322e-02   1.2260055e-03   1.6074158e-02  -8.2917234e-03   3.2600670e-02  -1.5241959e-01  -9.8667438e-02   6.3472373e-02   2.1906025e-01   2.8338197e-02  -2.6611971e-01   2.1766442e-01  -4.5260246e-02  -8.8297879e-02  -8.6371407e-02   6.1238503e-02  -9.9669217e-04   1.1973441e-01  -9.8232134e-02   1.2461284e-01   4.0959482e-01   4.6484310e-01
   9.6269116e-03  -1.3376281e-02   2.9646116e-03  -2.7401036e-02  -5.1640001e-02  -3.0876132e-02  -2.1675192e-02   7.4454466e-02  -1.4367064e-02   9.7341355e-02   5.2409727e-02   1.7215939e-01  -1.1904854e-01  -2.6414215e-01   7.8616286e-03  -1.6775289e-02  -1.7985923e-01   1.4472777e-01   4.3681208e-01   2.4197360e-02  -2.4253072e-01   3.1266409e-01  -1.6557411e-01  -8.0223180e-01   3.6231515e-01   3.0556620e-01
  -3.7258831e-03   4.6026020e-03   1.6092368e-03   8.6409655e-03  -3.8509069e-02  -3.9948152e-05   4.6498416e-03  -4.0566109e-02   2.0984836e-03   2.2068565e-01  -1.7905170e-01   1.1256089e-01   8.2859597e-02  -2.7346143e-01  -5.5955083e-02   4.4370851e-02  -2.6091453e-01   2.5120450e-02   6.0815853e-02  -2.2016750e-01  -6.0088087e-01   1.3231428e-01  -3.2241022e-01  -7.2382201e-01  -1.5311094e-01   3.1310188e-01
  -3.6761480e-03  -1.6764976e-02  -7.8740777e-02  -2.3691467e-02   2.8236841e-02   3.4812482e-02  -1.6998469e-02   2.2379198e-02  -8.8766463e-02   1.8049335e-01  -4.8052215e-03  -2.4042520e-01   1.9316687e-01  -7.1520785e-02   8.3080271e-02  -2.2203901e-03  -2.9623811e-01   1.7970528e-02   1.2978141e-01   3.5039073e-02  -4.4031545e-02   1.6612697e-01   2.7467615e-01  -4.3044205e-01  -2.6915806e-01   2.3503089e-02
   2.0854939e-02  -3.7608566e-02   1.7188714e-02   9.9356742e-03   6.9999246e-02  -2.2463172e-02  -5.5385382e-02  -1.5513713e-02   1.6491207e-01  -2.0651284e-01   1.8705618e-01  -1.7120478e-01  -1.4261346e-01  -5.0598882e-02  -1.0555846e-01  -1.1201799e-01   2.5696900e-01  -2.1104905e-01  -1.3441679e-01   2.2954333e-03  -2.7868192e-01  -1.1177897e-01  -2.1795624e-01  -8.9165617e-02  -6.7607018e-01   3.6208871e-01
   3.6580188e-03  -1.8555798e-02  -1.7561470e-02   1.4172905e-02  -2.2717427e-02   3.1428504e-02  -4.0880381e-02   7.4093369e-02   1.9462927e-02   6.4458187e-02  -2.9074842e-02  -2.9342955e-02   4.9516540e-03  -1.9010100e-01  -1.0581851e-01  -1.6113894e-01  -3.7696359e-01   4.6609584e-01  -1.4688695e-01  -3.3736280e-02   1.5076052e-02  -9.8942376e-03   7.5914945e-02  -9.7803442e-02  -1.5622227e-02  -2.2122684e-01
  -2.4864705e-03   2.0644109e-02  -5.8493956e-03  -1.5700768e-02   4.5393341e-02  -8.0046001e-02  -1.2282446e-01   1.3412554e-02  -5.3441826e-02   6.8369082e-02   1.2279961e-01  -1.3516273e-01  -8.3966462e-02  -1.6340342e-01  -2.1557127e-02  -1.3847821e-01  -5.4380808e-02   1.9512367e-01  -6.0719927e-01   2.3399322e-01   2.5696421e-01   2.5103846e-01  -4.2395710e-03   4.1086422e-02  -2.0097457e-01   5.8039069e-02
  -1.8133055e-02   3.6917871e-03   3.0739765e-02  -1.0300254e-02   2.1604810e-02  -1.1422540e-01  -6.7225265e-02  -4.6161750e-03  -2.8702375e-02   7.2185473e-02   6.2347805e-02  -7.5485788e-02  -3.0799736e-02  -2.4460286e-01   1.2619854e-01  -5.1330835e-02  -2.1039722e-01   8.1054725e-02  -2.0937164e-01   2.5898918e-01   2.5990358e-01   3.4815852e-01  -8.4887080e-02  -2.1879764e-01  -1.2534015e-01  -1.1239713e-01
   1.4357267e-02   4.3062202e-02   3.0139864e-02  -6.0963826e-03  -3.9274847e-02   1.2663290e-02  -6.9426727e-03  -3.1012617e-02  -3.6659353e-02  -1.7161260e-02  -3.2920560e-02   1.5546121e-01  -1.7813358e-01   6.3601752e-02  -8.2312349e-02   6.0847887e-02   1.9621735e-01   1.5998578e-03  -1.7614427e-01  -1.4687439e-01  -2.2557209e-01  -5.1780348e-02  -2.5064193e-01   3.6168729e-02   1.6163115e-01   1.6844909e-01
   3.7815066e-03  -1.0359572e-02  -7.9343780e-03   8.1577083e-03  -9.8881204e-03   4.2077042e-02  -5.5037514e-02   3.5364812e-02   3.8829006e-02   3.0579838e-02  -2.3892872e-02  -1.8391812e-02   4.6743192e-03  -1.1491950e-01   3.3696111e-02  -1.6185539e-01  -1.4420253e-01   2.5834122e-01  -1.4173376e-01   6.2185055e-02  -3.2702994e-02   1.8829104e-02   1.9525629e-01  -3.5190067e-02  -3.2822978e-01  -2.6090554e-02
  -6.3653355e-04  -6.6552174e-03  -5.5437783e-03   1.0339395e-03   1.5044907e-02  -1.1513904e-02   2.1323810e-02  -1.3256777e-02   1.7038454e-02  -9.8875437e-02  -6.3483025e-02   1.3369707e-02   1.3091098e-01   5.0497537e-02  -1.3957185e-01   1.4354674e-01   3.0870114e-02  -1.6529891e-01   4.3787873e-03   1.3783080e-02   9.6906066e-03   2.3203862e-02  -8.3645866e-02   8.5083551e-02   2.1450672e-01   2.6248372e-01
   8.4171468e-03  -8.7170560e-03   9.4465696e-03  -1.3050701e-02  -4.4593695e-02  -1.5232049e-02   4.3485264e-03   5.9845604e-02  -1.2140799e-02   6.9548662e-02   2.1138105e-02   1.5947428e-01  -1.2380023e-01  -2.4477249e-01   9.1726427e-02  -8.0234447e-02  -2.6403138e-01   1.5969219e-01   4.3583813e-01   6.0927660e-02  -1.2696734e-01   3.9225543e-01  -1.4317059e-01  -7.6217978e-01   4.6486596e-01   4.3024091e-01
  -3.4060244e-03   1.7447333e-03   1.1519451e-03   2.0965667e-03  -2.9958344e-02   9.4412023e-03   1.4459368e-02  -2.1270147e-02  -2.3988983e-02   2.7543579e-01  -1.3325766e-01   5.8023284e-02   6.9613780e-02  -2.9892773e-01  -8.6344671e-02   9.8703894e-02  -2.9394057e-01   2.0987281e-02   1.2057870e-01  -3.1910776e-01  -6.7085285e-01   1.1254211e-01  -2.7909229e-01  -7.2941948e-01  -2.1400306e-01   1.8777239e-01
  -4.3142820e-03  -1.4535635e-02  -6.7566362e-02  -2.0599371e-02   3.3783828e-02   2.7477464e-02  -6.1268142e-03   3.0257999e-02  -8.6211771e-02   2.0632948e-01   4.8176990e-03  -1.1184001e-01   1.8815925e-01  -1.1104791e-01  -1.0239497e-02  -5.4636032e-02  -1.9728876e-01   7.1451969e-02   1.1339854e-01   6.7593467e-02  -1.8511303e-01   6.4851407e-02   3.5378088e-01  -2.7409713e-01  -2.5447339e-01  -3.8285329e-03
   1.3590096e-02  -2.9278720e-02   8.0663680e-03   1.5828481e-02   5.4788308e-02  -1.6477494e-02  -5.0149490e-02  -1.0842997e-02   1.6712701e-01  -1.4960573e-01   1.5280169e-01  -1.6867845e-01  -7.3387580e-02  -9.1293971e-02  -3.4520455e-02  -7.1578798e-02   2.9761953e-01  -3.1758259e-01  -2.2899604e-01  -2.5855402e-02  -1.7795243e-01  -6.3892530e-02  -3.2748753e-01  -1.4998658e-01  -6.8084764e-01   5.4590717e-01
   2.6836206e-03  -1.8184402e-02  -1.6835407e-02   8.7532281e-03  -1.7931139e-02   2.3825354e-02  -3.1359821e-02   7.4733944e-02   4.0738513e-03   5.0449561e-02  -7.0529014e-03  -3.4097177e-02  -4.8411506e-02  -1.4645193e-01  -1.1253522e-01  -1.1286705e-01  -3.2698600e-01   3.7511571e-01  -1.4883504e-01  -6.3697330e-02   3.4791069e-02  -7.4000756e-02  -2.5746487e-02  -1.2099004e-01   1.2538738e-01  -1.7096002e-01
  -4.1905997e-03   1.7678850e-02  -5.8111547e-03  -1.1557649e-02   3.9512080e-02  -7.9377184e-02  -1.1457056e-01   1.1291678e-02  -4.2131405e-02   6.9011970e-02   1.1224963e-01  -9.1221330e-02  -4.3062335e-02  -1.4445749e-01  -3.0427444e-03  -1.6022269e-01  -1.3773038e-02   1.6332108e-01  -5.5949103e-01   1.6283681e-01   1.5671002e-01   1.2057296e-01   1.0926759e-01   1.0811383e-02  -1.1925740e-01   7.9479295e-02
  -1.6608654e-02  -2.5698421e-03   2.4305735e-02  -7.9080736e-03   2.7936641e-02  -1.0131568e-01  -7.1783721e-02   1.3528293e-02  -1.6527555e-02   6.8202831e-02   4.4147587e-02  -6.8281813e-02  -4.3899577e-02  -2.2561509e-01   1.3356576e-01  -5.4122868e-02  -1.7920231e-01   5.5800946e-02  -2.0115404e-01   2.1081481e-01   3.0118506e-01   2.8322516e-01  -1.7834046e-01  -2.4794772e-01  -9.3595787e-02  -7.2497000e-02
   1.2483471e-02   4.3524004e-02   3.4547284e-02  -4.6394256e-03  -4.3201040e-02  -1.0476086e-03   1.0201559e-02  -4.2103066e-02  -4.5396844e-02  -2.6068991e-02  -4.0920382e-02   9.7835841e-02  -7.6495210e-02   9.2470293e-02   4.6129913e-03   2.4899678e-02   1.2191154e-01   1.0871275e-02   1.7593230e-02  -1.6214940e-01  -2.1818448e-01  -2.5841904e-02   1.3910269e-02   4.4466885e-02   1.4227908e-01  -2.4801218e-02
   4.2252058e-03  -6.0382164e-03   5.2278661e-03   6.1433135e-03   5.9957163e-04   7.1059848e-03  -3.8063932e-02   6.1100547e-02   6.1931986e-03   6.0387670e-02  -8.6588147e-02   2.1964253e-02   9.1469638e-03  -1.1448634e-01   6.4645986e-02  -1.6571904e-01  -8.4477255e-02   2.1857794e-01   8.8130607e-02   6.7535902e-02   7.3169403e-02   9.7026915e-02   3.5732851e-02  -3.6161656e-02  -2.5313316e-01  -2.0805009e-01
  -4.5917870e-03   3.1497826e-04  -1.2099556e-03  -6.9680356e-06   1.1738918e-02  -2.0582979e-02   2.1465223e-02  -1.7712988e-02  -6.4093252e-05  -3.4427945e-02  -6.4133280e-03  -3.9188102e-02   2.4154599e-02   6.4553112e-02  -4.8106327e-03   6.1608132e-02   9.5632309e-02  -2.1548674e-01   6.6675023e-02  -2.7929278e-02   3.8531572e-03  -7.6579337e-02  -5.7900665e-02   2.8173428e-02   2.0407756e-02   5.5339037e-02
   6.7228085e-03  -4.0238197e-03   1.2394588e-02  -3.9477069e-03  -3.6942105e-02  -2.4050936e-03   2.1728138e-02   4.1845910e-02  -6.4796213e-03   3.0974591e-02  -1.0922085e-03   1.2034395e-01  -1.1143539e-01  -1.9171611e-01   1.5106741e-01  -1.2460579e-01  -2.8771987e-01   1.4767035e-01   3.7365246e-01   8.0573528e-02  -3.0525712e-03   4.0285180e-01  -1.0628244e-01  -6.0752476e-01   4.8515918e-01   4.8164272e-01
  -3.4192583e-03  -1.9765269e-04   1.9418780e-04  -3.1120550e-03  -2.3102961e-02   1.7951767e-02   2.1077882e-02  -6.5749722e-03  -4.5691653e-02   2.8389008e-01  -9.0727786e-02   1.3871998e-02   5.6888903e-02  -2.7418271e-01  -8.4152304e-02   1.3363897e-01  -2.9753288e-01   2.1121889e-02   1.5684287e-01  -3.5765490e-01  -6.2667959e-01   7.8151427e-02  -1.8492355e-01  -6.2173883e-01  -2.2557057e-01   4.7700196e-02
  -3.7891474e-03  -1.0615444e-02  -5.6903281e-02  -1.9563671e-02   3.8943253e-02   2.1555108e-02   9.0938770e-04   3.7885448e-02  -8.6551022e-02   2.1132626e-01   5.1970847e-03  -5.3468636e-04   1.5882333e-01  -1.2635110e-01  -9.2508816e-02  -8.0965769e-02  -8.0797540e-02   1.0417082e-01   6.7351043e-02   9.4997956e-02  -2.7023384e-01  -2.6497939e-02   3.6349371e-01  -1.0544374e-01  -2.2232994e-01  -1.6333244e-02
   8.4639417e-03  -2.2609264e-02   1.5258868e-03   1.8856302e-02   3.9882321e-02  -1.1237596e-02  -4.4647539e-02  -3.3547592e-03   1.5093850e-01  -1.0074990e-01   1.2004593e-01  -1.5527003e-01  -3.2562606e-02  -1.1691468e-01   2.2912674e-02  -2.2466212e-02   3.1244909e-01  -3.6901308e-01  -2.7229267e-01  -4.5141381e-02  -7.8433029e-02  -7.2066656e-03  -3.9063947e-01  -1.8308163e-01  -5.9900451e-01   6.2062264e-01
   2.7048122e-03  -1.5279279e-02  -1.4354399e-02   5.0435773e-03  -1.3795758e-02   1.7656786e-02  -2.2379666e-02   7.5145459e-02  -6.4124093e-03   3.1466737e-02   4.3420496e-03  -2.9812923e-02  -8.4785159e-02  -1.0237416e-01  -1.1314567e-01  -8.2078466e-02  -2.6191916e-01   2.9841340e-01  -1.4201050e-01  -8.6550263e-02   5.9221863e-02  -1.2421137e-01  -1.1083510e-01  -1.1489736e-01   2.4298551e-01  -1.2563190e-01
  -5.9736926e-03   1.3262267e-02  -5.5630764e-03  -8.8159126e-03   3.6769823e-02  -8.1664964e-02  -1.0697409e-01   1.5853240e-02  -3.9905324e-02   7.8983232e-02   9.7222565e-02  -4.9803051e-02  -1.7601113e-02  -1.4571541e-01   3.8511503e-03  -1.6629020e-01   4.2461315e-03   1.4438634e-01  -4.9767261e-01   1.1030802e-01   8.2492402e-02   2.9609734e-02   1.7420499e-01  -2.9852519e-02  -1.2934430e-02   7.9363780e-02
  -1.4347779e-02  -4.8641533e-03   2.0241836e-02  -7.2533900e-03   3.0618528e-02  -9.0274449e-02  -7.7240557e-02   2.3809522e-02  -1.1687461e-02   5.8201196e-02   3.2637741e-02  -5.8770747e-02  -5.8744501e-02  -2.0128325e-01   1.2532987e-01  -5.3389038e-02  -1.5290387e-01   4.5520745e-02  -2.0627865e-01   1.6842020e-01   3.2710840e-01   2.1940472e-01  -2.3674019e-01  -2.4271421e-01  -4.1990223e-02  -4.0367378e-02
   8.8773986e-03   3.8497301e-02   3.4592318e-02  -1.9734027e-03  -4.2308983e-02  -1.3261829e-02   2.4298628e-02  -4.8822825e-02  -4.3054611e-02  -3.4905537e-02  -4.1820723e-02   4.6884287e-02   1.7282272e-02   1.0719004e-01   7.0138231e-02  -2.3477695e-03   5.3358968e-02   5.8329841e-03   1.6131603e-01  -1.4973630e-01  -1.8238313e-01  -1.0051280e-02   2.2045594e-01   4.4814513e-02   1.2201777e-01  -1.5935693e-01
   5.4218585e-03  -8.4100144e-04   1.5814604e-02   4.0097318e-03   7.0709870e-03  -1.9015535e-02  -2.2636829e-02   7.5215118e-02  -2.1453726e-02   7.1628735e-02  -1.3059535e-01   5.4574179e-02   1.8987408e-02  -1.0618751e-01   7.3733849e-02  -1.5104079e-01  -3.5788420e-02   1.9518967e-01   2.4908173e-01   5.6511519e-02   1.4492394e-01   1.5159092e-01  -7.5867457e-02  -1.6533129e-02  -1.5395984e-01  -3.2463831e-01
  -7.8463843e-03   5.4407049e-03   1.2641606e-03  -1.7723326e-03   8.8505958e-03  -2.4276214e-02   1.7735435e-02  -2.1298180e-02  -1.4195164e-02   2.1679879e-02   5.3797760e-02  -8.0029497e-02  -7.1106882e-02   6.8228802e-02   1.0070246e-01  -1.4557094e-03   1.3606636e-01  -2.3343790e-01   8.9275674e-02  -5.3560173e-02  -1.7105044e-02  -1.5230827e-01  -3.0493122e-02  -2.6704600e-02  -1.2012576e-01  -1.0180586e-01
   4.7379833e-03   4.7198246e-05   1.2619352e-02   8.4666841e-04  -2.9009202e-02   7.3458006e-03   3.1322174e-02   2.2877899e-02   1.4068555e-03  -8.9308873e-03  -1.7179079e-02   6.7194479e-02  -8.8602205e-02  -1.2244376e-01   1.8353960e-01  -1.5194099e-01  -2.6818660e-01   1.1530034e-01   2.7604083e-01   8.8265948e-02   1.0761686e-01   3.6542207e-01  -7.0149096e-02  -3.9744844e-01   4.4667958e-01   4.7890609e-01
  -3.5788376e-03  -1.2202964e-03  -8.3941796e-04  -7.0026648e-03  -1.7483715e-02   2.4710001e-02   2.4293572e-02   4.0660420e-03  -6.0299906e-02   2.5912184e-01  -5.3694519e-02  -1.8158237e-02   4.3125103e-02  -2.1592474e-01  -6.2683274e-02   1.4867783e-01  -2.7490958e-01   2.0648243e-02   1.7377470e-01  -3.4844255e-01  -5.0723329e-01   3.4879718e-02  -7.0573618e-02  -4.5030991e-01  -2.0811423e-01  -8.7494475e-02
  -2.5138492e-03  -5.8277016e-03  -4.7254540e-02  -1.9966413e-02   4.2824983e-02   1.6633891e-02   5.0007887e-03   4.3973438e-02  -8.7836118e-02   1.9996272e-01  -1.0098860e-03   8.9550423e-02   1.1970585e-01  -1.2427070e-01  -1.6121921e-01  -9.1179370e-02   3.5394383e-02   1.2307367e-01   8.5769884e-03   1.1578870e-01  -3.2138135e-01  -1.0603253e-01   3.4003442e-01   5.8163802e-02  -1.8246913e-01  -2.3334455e-02
   5.1892307e-03  -1.7515711e-02  -2.6944328e-03   1.9620388e-02   2.5326861e-02  -6.5212636e-03  -3.9095881e-02   5.3534150e-03   1.2225082e-01  -5.9371772e-02   8.9538756e-02  -1.3502252e-01  -1.0587239e-02  -1.2980543e-01   6.8965912e-02   2.7420854e-02   3.0184401e-01  -3.7397943e-01  -2.7289350e-01  -5.9238548e-02   1.1878393e-02   5.1973823e-02  -4.0605453e-01  -1.9182059e-01  -4.6062616e-01   6.0633977e-01
   3.2316862e-03  -1.0937760e-02  -1.1265069e-02   3.0929874e-03  -1.0793821e-02   1.3574115e-02  -1.3996911e-02   7.3230672e-02  -1.0714048e-02   8.5310032e-03   1.0588027e-02  -2.3337828e-02  -1.0234646e-01  -5.9840430e-02  -1.0752525e-01  -6.7502268e-02  -1.9383838e-01   2.3579375e-01  -1.3202739e-01  -1.0390449e-01   7.9884599e-02  -1.6531877e-01  -1.6277551e-01  -9.2001926e-02   3.3021739e-01  -8.1222228e-02
  -7.2607914e-03   8.9514820e-03  -4.4357299e-03  -7.5931456e-03   3.5813969e-02  -8.5597507e-02  -1.0058101e-01   2.5150726e-02  -4.6469942e-02   9.3679214e-02   7.7758493e-02  -8.6392910e-03  -8.8372791e-03  -1.5945074e-01  -6.9930491e-04  -1.5878420e-01   8.2491224e-03   1.3742971e-01  -4.3068090e-01   6.9932040e-02   3.2039348e-02  -2.9016139e-02   1.9403370e-01  -6.3952305e-02   1.1254349e-01   6.3160631e-02
  -1.1969690e-02  -4.5471233e-03   1.7923215e-02  -7.7779806e-03   3.0626958e-02  -8.1989781e-02  -8.2660141e-02   2.7335164e-02  -1.1760653e-02   4.5664069e-02   2.7400884e-02  -5.1761384e-02  -6.8977296e-02  -1.7642618e-01   1.0867885e-01  -5.3579936e-02  -1.3653110e-01   4.6785680e-02  -2.1296309e-01   1.3239668e-01   3.3819715e-01   1.5901985e-01  -2.5379253e-01  -2.1564906e-01   1.5504166e-02  -2.2435375e-02
   4.9765930e-03   3.0744467e-02   3.1714698e-02   1.0810399e-03  -3.8507090e-02  -2.1510346e-02   3.2930412e-02  -5.1228386e-02  -3.2987079e-02  -4.3217046e-02  -3.9032293e-02   1.2126426e-02   8.4336931e-02   1.0914546e-01   1.0503789e-01  -1.6562311e-02   3.9620573e-03  -9.3844357e-03   2.3789179e-01  -1.2010163e-01  -1.3182444e-01  -2.9088576e-03   3.3366857e-01   3.7173223e-02   1.0436159e-01  -2.1829166e-01
   6.8718386e-03   3.3298858e-03   2.1514507e-02   2.3315391e-03   9.0008506e-03  -3.1898317e-02  -1.1851365e-02   7.7564638e-02  -3.8243692e-02   6.5453054e-02  -1.4948405e-01   7.3413764e-02   3.0951578e-02  -9.5909321e-02   6.1248748e-02  -1.2496461e-01  -1.0521664e-02   1.9320635e-01   3.1776791e-01   3.5892150e-02   1.7235039e-01   1.7428936e-01  -1.2367553e-01   1.5660724e-02  -5.4909882e-02  -3.6348583e-01
  -9.8263917e-03   8.0111048e-03   1.8296696e-03  -3.7672803e-03   6.9037521e-03  -2.2930334e-02   1.1795836e-02  -2.3620969e-02  -2.3253671e-02   5.8582787e-02   1.0339766e-01  -1.0211774e-01  -1.3631799e-01   6.3274596e-02   1.6050413e-01  -3.3711084e-02   1.4843499e-01  -2.2289869e-01   7.5543739e-02  -6.0420530e-02  -4.6598839e-02  -1.9038011e-01  -6.2972601e-03  -6.7173748e-02  -1.8556193e-01  -1.8529240e-01
   2.6499553e-03   3.0754783e-03   1.0937173e-02   2.3042415e-03  -2.1140958e-02   1.4316265e-02   3.4382211e-02   4.8743567e-03   1.0196323e-02  -4.3662075e-02  -2.9087291e-02   9.8865396e-03  -6.0987761e-02  -5.0357530e-02   1.9019233e-01  -1.6408603e-01  -2.2152167e-01   6.9904823e-02   1.6287112e-01   8.7256684e-02   1.9163820e-01   2.9798682e-01  -4.2987022e-02  -1.7553453e-01   3.7143966e-01   4.3755609e-01
  -3.7506566e-03  -1.3874229e-03  -1.6595407e-03  -9.6461756e-03  -1.2676103e-02   2.9362761e-02   2.4242403e-02   1.1032550e-02  -6.6346067e-02   2.1235165e-01  -2.3317071e-02  -3.8277652e-02   2.7706615e-02  -1.3842474e-01  -3.2746688e-02   1.4490842e-01  -2.3078273e-01   1.7041344e-02   1.7374914e-01  -3.0427363e-01  -3.4575423e-01  -1.2880789e-02   4.1973292e-02  -2.5335882e-01  -1.7748809e-01  -2.0330481e-01
  -8.9782700e-04  -8.7203572e-04  -3.8927345e-02  -2.1149962e-02   4.5047194e-02   1.2227754e-02   7.1444344e-03   4.7907350e-02  -8.8611891e-02   1.7780826e-01  -1.1050049e-02   1.5655776e-01   8.1057924e-02  -1.1123485e-01  -2.1366019e-01  -9.3260540e-02   1.3792582e-01   1.3247443e-01  -4.8288377e-02   1.2918904e-01  -3.5327834e-01  -1.7181569e-01   3.0852116e-01   2.0261008e-01  -1.4247676e-01  -3.2966854e-02
   3.4296040e-03  -1.3893478e-02  -4.8993445e-03   1.8741979e-02   1.1339073e-02  -2.2209174e-03  -3.3576457e-02   1.3932707e-02   8.6367929e-02  -2.4438072e-02   6.1877787e-02  -1.1142364e-01   7.4750575e-05  -1.3243664e-01   1.0571830e-01   7.1877275e-02   2.6821231e-01  -3.4265831e-01  -2.3989679e-01  -7.0784976e-02   8.7986903e-02   1.0781798e-01  -3.7741347e-01  -1.8078145e-01  -2.9329595e-01   5.2401043e-01
   3.8050651e-03  -6.1812463e-03  -8.5551836e-03   2.8210822e-03  -8.9886357e-03   1.1928017e-02  -6.3033088e-03   6.7992149e-02  -8.4393906e-03  -1.6018867e-02   1.6214802e-02  -1.9529593e-02  -1.0280012e-01  -2.1498650e-02  -9.6097073e-02  -6.6396292e-02  -1.3167846e-01   1.8580089e-01  -1.2306106e-01  -1.1598997e-01   9.1807607e-02  -2.0031119e-01  -1.7545726e-01  -6.3912044e-02   3.8349535e-01  -3.5770504e-02
  -7.7229706e-03   5.8026375e-03  -2.1341731e-03  -7.8317851e-03   3.5284520e-02  -8.9966522e-02  -9.5745721e-02   3.6674721e-02  -6.0167113e-02   1.0839723e-01   5.4884050e-02   3.1914223e-02  -1.4128147e-02  -1.7853300e-01  -1.4908356e-02  -1.4196966e-01   3.1358742e-03   1.4114188e-01  -3.6545205e-01   3.6114004e-02  -3.5629200e-05  -6.4440174e-02   1.8156056e-01  -7.9611787e-02   2.4666478e-01   3.6066679e-02
  -9.9148393e-03  -2.7139861e-03   1.6860524e-02  -8.9723315e-03   2.9054640e-02  -7.6931395e-02  -8.7295195e-02   2.5621077e-02  -1.4942047e-02   3.4184475e-02   2.7716199e-02  -4.9241260e-02  -7.2359333e-02  -1.5481477e-01   8.8645920e-02  -5.6860698e-02  -1.3089816e-01   5.5803926e-02  -2.1346875e-01   1.0302942e-01   3.3787739e-01   1.0433444e-01  -2.3311447e-01  -1.7725836e-01   7.0281778e-02  -2.1566287e-02
   1.7617438e-03   2.2688091e-02   2.7483048e-02   3.8216741e-03  -3.3630119e-02  -2.5139734e-02   3.5774620e-02  -5.0062899e-02  -1.9369220e-02  -5.0426604e-02  -3.5606804e-02  -4.1239896e-03   1.1759820e-01   1.0109407e-01   1.1021659e-01  -1.7740529e-02  -2.1481972e-02  -2.9429140e-02   2.5185962e-01  -8.4314345e-02  -7.9057473e-02  -1.6557683e-03   3.4962610e-01   2.3859658e-02   8.9812610e-02  -2.0819356e-01
   8.2081352e-03   5.4364020e-03   2.1881930e-02   1.4552682e-03   7.0455172e-03  -3.1562077e-02  -6.8299076e-03   7.0889269e-02  -4.2634570e-02   4.6761199e-02  -1.4537799e-01   7.7773888e-02   4.1534686e-02  -8.8082914e-02   3.1953543e-02  -9.5033661e-02  -1.0459573e-02   2.0893619e-01   2.9968059e-01   1.3179584e-02   1.5918845e-01   1.6702662e-01  -1.1441004e-01   5.1175732e-02   2.5864092e-02  -3.3320754e-01
  -1.0388144e-02   8.0607601e-03   1.0896281e-03  -5.5685941e-03   5.9594557e-03  -1.8197274e-02   5.3480705e-03  -2.4390456e-02  -2.7181922e-02   7.2883608e-02   1.3429897e-01  -1.0413480e-01  -1.6388368e-01   5.3553973e-02   1.7425557e-01  -3.4684573e-02   1.3591139e-01  -1.9332554e-01   3.7834020e-02  -5.1545378e-02  -7.6465271e-02  -1.8899911e-01   1.2095734e-02  -8.8670796e-02  -1.7859135e-01  -1.9520485e-01
   6.2815540e-04   4.8457377e-03   8.1202499e-03   1.3626835e-03  -1.3691084e-02   1.8980218e-02   3.2440337e-02  -1.0869629e-02   1.8563276e-02  -6.9685500e-02  -3.7935274e-02  -4.4090625e-02  -3.2986835e-02   1.5272189e-02   1.7467824e-01  -1.6299931e-01  -1.6171780e-01   1.8781875e-02   4.8812968e-02   7.9668593e-02   2.4227697e-01   2.1514527e-01  -2.8008313e-02   2.7838385e-02   2.7849281e-01   3.7057149e-01
  -3.8225616e-03  -7.7897876e-04  -2.0878081e-03  -1.1231817e-02  -8.4228600e-03   3.1809245e-02   2.1447372e-02   1.4471661e-02  -6.3745991e-02   1.5303720e-01  -2.5975632e-05  -4.7796655e-02   1.0842427e-02  -5.3716567e-02  -3.1053042e-03   1.2508256e-01  -1.7092409e-01   9.4804995e-03   1.5876330e-01  -2.3759640e-01  -1.7117092e-01  -6.1773385e-02   1.3688669e-01  -6.0562663e-02  -1.4570762e-01  -2.8964034e-01
   7.0972032e-04   3.6781432e-03  -3.2100343e-02  -2.2486457e-02   4.5597122e-02   7.9819530e-03   8.3142638e-03   4.9553371e-02  -8.7900907e-02   1.5016918e-01  -2.2179817e-02   2.0087201e-01   4.8991797e-02  -9.2620242e-02  -2.4811977e-01  -9.2453989e-02   2.1810109e-01   1.3507809e-01  -9.3345221e-02   1.3522260e-01  -3.7430818e-01  -2.2248273e-01   2.8345537e-01   3.1825595e-01  -1.0630112e-01  -5.0325379e-02
   2.8285577e-03  -1.1635439e-02  -5.4411728e-03   1.6826327e-02  -1.7342025e-03   1.7071040e-03  -2.8106816e-02   2.1341953e-02   4.7857831e-02   5.1426661e-03   3.7541474e-02  -8.7226906e-02   4.9773163e-03  -1.2722313e-01   1.3479018e-01   1.0670108e-01   2.1567948e-01  -2.8563932e-01  -1.8301277e-01  -8.1284080e-02   1.4778940e-01   1.5543603e-01  -3.1226930e-01  -1.5482278e-01  -1.2026319e-01   3.9485020e-01
   4.0725913e-03  -1.8592867e-03  -6.9377229e-03   4.0412902e-03  -8.1352840e-03   1.2750285e-02   5.5869585e-04   5.9462042e-02  -5.7962512e-05  -3.9477494e-02   2.4120889e-02  -2.0899910e-02  -9.0222615e-02   1.0157919e-02  -8.0121025e-02  -7.4801228e-02  -8.0853122e-02   1.4618781e-01  -1.1804032e-01  -1.2206816e-01   9.3691748e-02  -2.3026632e-01  -1.5193026e-01  -3.9570549e-02   4.0329419e-01   1.1149859e-02
  -7.2920122e-03   4.3778766e-03   1.3292131e-03  -9.3158615e-03   3.4105215e-02  -9.3909818e-02  -9.2594710e-02   4.7869878e-02  -7.8405236e-02   1.1951085e-01   3.0377846e-02   6.9647248e-02  -2.8537655e-02  -1.9722644e-01  -3.5468085e-02  -1.2160099e-01  -8.7700038e-03   1.5328776e-01  -3.0578503e-01   4.7665417e-03  -2.0060520e-02  -8.6003280e-02   1.5405689e-01  -7.0946658e-02   3.7568360e-01   2.1200250e-03
  -8.4169170e-03  -1.9056908e-04   1.6669023e-02  -1.0415417e-02   2.6866366e-02  -7.5004701e-02  -9.0657966e-02   2.0267664e-02  -1.9939185e-02   2.6428365e-02   3.2579576e-02  -5.0915595e-02  -6.9562962e-02  -1.3875139e-01   6.7791041e-02  -6.3254552e-02  -1.3391199e-01   6.9312237e-02  -2.0507963e-01   8.0120418e-02   3.3061540e-01   5.6820001e-02  -1.8458163e-01  -1.3504370e-01   1.1873671e-01  -3.6677764e-02
  -2.6210987e-04   1.6077662e-02   2.3222919e-02   5.7685834e-03  -2.9117382e-02  -2.4652751e-02   3.3824180e-02  -4.6534540e-02  -5.8462473e-03  -5.6420225e-02  -3.3524896e-02  -4.7977941e-03   1.1920841e-01   8.6671264e-02   9.2940251e-02  -8.6487562e-03  -2.5101423e-02  -4.9025516e-02   2.1966250e-01  -5.1411096e-02  -3.3277535e-02  -3.4801675e-03   2.8677289e-01   9.2501332e-03   7.7534785e-02  -1.4910972e-01
   9.2247183e-03   5.2521714e-03   1.7890733e-02   1.5311466e-03   2.5358853e-03  -2.1072680e-02  -7.2100072e-03   5.9451671e-02  -3.6295779e-02   2.2192675e-02  -1.2577783e-01   7.0657492e-02   4.8061898e-02  -8.4999509e-02  -6.7082559e-03  -6.8450804e-02  -2.9727698e-02   2.3375351e-01   2.1870964e-01  -5.5990853e-03   1.1859019e-01   1.3796357e-01  -6.7965940e-02   8.1813429e-02   7.7217468e-02  -2.5555534e-01
  -9.7288450e-03   6.0948080e-03  -8.1516817e-05  -6.8576497e-03   5.8604038e-03  -1.2312662e-02  -3.1230975e-04  -2.3440081e-02  -2.7076030e-02   6.6714746e-02   1.4399495e-01  -8.9169229e-02  -1.5515126e-01   4.3645194e-02   1.5250501e-01  -1.1927379e-02   1.0611119e-01  -1.5613542e-01  -8.1994952e-03  -3.2906324e-02  -9.8191617e-02  -1.5479354e-01   2.4244987e-02  -9.1951070e-02  -1.1770338e-01  -1.4703729e-01
  -1.1941996e-03   5.2873020e-03   4.8412780e-03  -1.1064102e-03  -6.9709565e-03   2.1706698e-02   2.7104620e-02  -2.3623552e-02   2.5369009e-02  -8.5939935e-02  -4.4185999e-02  -8.9297090e-02  -7.4204998e-03   6.8894570e-02   1.4237132e-01  -1.5112153e-01  -9.9968157e-02  -3.1338211e-02  -5.5327105e-02   6.7431587e-02   2.5832059e-01   1.2861192e-01  -2.4831374e-02   1.9311364e-01   1.8333778e-01   2.8906460e-01
  -3.7475069e-03   4.5346700e-04  -2.0758720e-03  -1.1964767e-02  -4.4887509e-03   3.2008602e-02   1.6574035e-02   1.4493654e-02  -5.3271769e-02   8.8861002e-02   1.6574336e-02  -4.9074648e-02  -6.2593122e-03   2.8620684e-02   2.0281962e-02   9.2459912e-02  -1.0152094e-01  -1.3029310e-03   1.3144638e-01  -1.5920765e-01  -5.8388754e-03  -1.0847875e-01   2.0529848e-01   1.0732613e-01  -1.2117032e-01  -3.4082399e-01
   2.0651167e-03   7.3633530e-03  -2.6856101e-02  -2.3409248e-02   4.4692860e-02   3.7423690e-03   9.2326519e-03   4.9109306e-02  -8.5018322e-02   1.2097654e-01  -3.1956525e-02   2.2491237e-01   2.6217268e-02  -7.2164273e-02  -2.6456219e-01  -9.1583568e-02   2.7174499e-01   1.3277605e-01  -1.2240692e-01   1.3487431e-01  -3.8764696e-01  -2.5746080e-01   2.7046630e-01   4.0051687e-01  -7.4249171e-02  -7.6172103e-02
   3.0511297e-03  -1.0620631e-02  -4.6979002e-03   1.4408034e-02  -1.3517370e-02   5.2881901e-03  -2.2682008e-02   2.6858420e-02   1.0389990e-02   3.0283086e-02   1.6754438e-02  -6.4251950e-02   7.8349709e-03  -1.1646549e-01   1.5696718e-01   1.2984172e-01   1.4961438e-01  -2.1312102e-01  -1.1227030e-01  -9.1318873e-02   1.9106390e-01   1.9113220e-01  -2.2118723e-01  -1.1889384e-01   4.0466814e-02   2.3972602e-01
   3.8393483e-03   1.4448167e-03  -6.7536306e-03   6.4627653e-03  -7.8598691e-03   1.5721836e-02   6.4188902e-03   4.8501468e-02   1.3092469e-02  -5.9442182e-02   3.5188951e-02  -2.7703917e-02  -6.9857426e-02   3.3318931e-02  -6.1600268e-02  -8.8166630e-02  -4.3344856e-02   1.1422510e-01  -1.1831485e-01  -1.2129382e-01   8.6974899e-02  -2.5487838e-01  -1.0239775e-01  -2.4796099e-02   3.9327622e-01   5.8861594e-02
  -6.1195646e-03   4.8060560e-03   5.6914024e-03  -1.1717190e-02   3.1628835e-02  -9.6916363e-02  -9.0922590e-02   5.6481445e-02  -9.8175383e-02   1.2514675e-01   6.5487756e-03   1.0167759e-01  -4.6394287e-02  -2.1155840e-01  -5.8444045e-02  -1.0343313e-01  -2.6681935e-02   1.7072819e-01  -2.5268595e-01  -2.6417871e-02  -3.4112031e-02  -1.0189223e-01   1.2875824e-01  -3.8091392e-02   4.8600424e-01  -3.6085040e-02
  -7.5197739e-03   2.4487013e-03   1.7074622e-02  -1.1787249e-02   2.4759959e-02  -7.5655436e-02  -9.2629148e-02   1.2794248e-02  -2.5850942e-02   2.3580199e-02   4.0648678e-02  -5.5148975e-02  -6.2894123e-02  -1.2903584e-01   4.6834950e-02  -7.1662115e-02  -1.4178924e-01   8.4963367e-02  -1.8926254e-01   6.2918045e-02   3.2089824e-01   1.6836254e-02  -1.2083848e-01  -9.3252355e-02   1.6015378e-01  -6.3256899e-02
  -9.9372891e-04   1.1895305e-02   1.9863142e-02   6.6689757e-03  -2.5903084e-02  -2.1211943e-02   2.8738152e-02  -4.1991049e-02   5.0132781e-03  -6.1550191e-02  -3.3728759e-02   4.3191296e-03   9.7169716e-02   6.9563217e-02   6.3210483e-02   6.5959396e-03  -1.3418019e-02  -6.4347321e-02   1.6218178e-01  -2.7299470e-02  -2.0639477e-05  -6.4596289e-03   1.7483416e-01  -2.1311415e-03   6.5710148e-02  -6.5756885e-02
   9.8710414e-03   3.2070394e-03   1.1345465e-02   2.5006637e-03  -3.0334297e-03  -5.0000860e-03  -1.1568729e-02   4.7632583e-02  -2.2903888e-02  -1.6788645e-03  -1.0019071e-01   5.7109831e-02   4.9217757e-02  -8.6748596e-02  -4.6774137e-02  -5.0843381e-02  -5.8442784e-02   2.5781423e-01   1.0654941e-01  -1.7342275e-02   6.6962638e-02   9.7305003e-02  -8.6978443e-03   1.0135458e-01   9.5440218e-02  -1.5742268e-01
  -8.2356259e-03   2.9002354e-03  -8.3672299e-04  -7.5144992e-03   6.2883791e-03  -7.4040137e-03  -4.3384901e-03  -2.0831970e-02  -2.4780720e-02   4.5868737e-02   1.3436905e-01  -6.2734772e-02  -1.1792159e-01   3.7240194e-02   1.1050545e-01   2.3474994e-02   6.8521065e-02  -1.2199837e-01  -4.7729488e-02  -1.1496800e-02  -1.0630023e-01  -9.9510442e-02   3.0112546e-02  -8.1940773e-02  -2.8854547e-02  -6.3837506e-02
  -2.7181548e-03   4.4477055e-03   1.6396543e-03  -4.3414865e-03  -1.2563876e-03   2.2684187e-02   1.9922774e-02  -3.3064478e-02   2.9707689e-02  -9.2876422e-02  -4.8049079e-02  -1.2183732e-01   1.4392634e-02   1.0780264e-01   9.9156841e-02  -1.3124822e-01  -4.4341489e-02  -7.4899385e-02  -1.4129116e-01   5.2685875e-02   2.4225864e-01   4.7883182e-02  -3.1102861e-02   3.0888172e-01   9.7884991e-02   2.0249350e-01
  -3.5180730e-03   2.1589351e-03  -1.6739472e-03  -1.2112633e-02  -7.5897887e-04   2.9975592e-02   1.0542715e-02   1.1239126e-02  -3.6637494e-02   2.6349002e-02   2.7333343e-02  -4.4641991e-02  -2.1760535e-02   1.0093620e-01   3.3489061e-02   5.1122702e-02  -2.8802772e-02  -1.3811137e-02   9.6106095e-02  -7.8223114e-02   1.3278230e-01  -1.4965087e-01   2.4330049e-01   2.3609743e-01  -1.0862912e-01  -3.5564864e-01
   3.0634896e-03   9.8790197e-03  -2.3149564e-02  -2.3489908e-02   4.2585841e-02  -5.1678676e-04   1.0286981e-02   4.7016437e-02  -7.9696740e-02   9.2535806e-02  -3.8781364e-02   2.3275721e-01   1.2886329e-02  -5.2128958e-02  -2.6487628e-01  -9.1702580e-02   2.9866939e-01   1.2685723e-01  -1.3560747e-01   1.2962337e-01  -3.9369001e-01  -2.7710873e-01   2.6777357e-01   4.4859727e-01  -4.4620310e-02  -1.0711713e-01
   3.8058414e-03  -1.0711065e-02  -3.0413875e-03   1.1929006e-02  -2.3662950e-02   8.5275830e-03  -1.7362648e-02   3.0111384e-02  -2.3288386e-02   5.1579653e-02  -6.0439422e-04  -4.3497534e-02   1.0808656e-02  -1.0229275e-01   1.7235683e-01   1.4101547e-01   7.6107476e-02  -1.3428958e-01  -3.7377474e-02  -1.0079635e-01   2.1904082e-01   2.1264019e-01  -1.1631578e-01  -7.7558034e-02   1.7609478e-01   7.8270071e-02
   3.0709169e-03   3.4617227e-03  -7.9440700e-03   9.6905969e-03  -7.7904671e-03   2.0184485e-02   1.1047423e-02   3.6546421e-02   2.9002422e-02  -7.4284104e-02   4.8372746e-02  -3.8634098e-02  -4.6936593e-02   4.7173993e-02  -4.2754428e-02  -1.0230731e-01  -1.8337987e-02   8.7079394e-02  -1.2335032e-01  -1.1346219e-01   7.4841935e-02  -2.7321878e-01  -4.0998263e-02  -2.2016414e-02   3.5869107e-01   1.0577513e-01
  -4.5100424e-03   6.8251724e-03   1.0485320e-02  -1.4563606e-02   2.7717437e-02  -9.8735503e-02  -9.0237768e-02   6.0767020e-02  -1.1633559e-01   1.2514285e-01  -1.3889466e-02   1.2560175e-01  -6.2595789e-02  -2.1904484e-01  -8.0070204e-02  -9.1984133e-02  -5.0202344e-02   1.8997530e-01  -2.0610833e-01  -5.7685286e-02  -4.6065905e-02  -1.1786137e-01   1.1956289e-01   1.4084606e-02   5.6770624e-01  -7.6549138e-02
  -7.1179445e-03   4.8937181e-03   1.7941915e-02  -1.2944650e-02   2.3072066e-02  -7.8074089e-02  -9.3423938e-02   4.5743608e-03  -3.2240451e-02   2.5433703e-02   5.0094432e-02  -5.9964761e-02  -5.5113007e-02  -1.2545573e-01   2.5416012e-02  -8.0831203e-02  -1.5035936e-01   1.0119610e-01  -1.6929882e-01   4.9880724e-02   3.1154533e-01  -1.6682736e-02  -5.4520781e-02  -5.3591683e-02   1.9411087e-01  -9.5152198e-02
  -6.3425622e-04   1.0393595e-02   1.7916108e-02   6.4764009e-03  -2.4363804e-02  -1.6261148e-02   2.2181795e-02  -3.7534586e-02   1.1970818e-02  -6.6540239e-02  -3.6376075e-02   1.6439429e-02   6.2055234e-02   5.2962710e-02   3.1256028e-02   2.3265648e-02   5.3964654e-03  -7.3573230e-02   9.9463664e-02  -1.4546229e-02   1.9260955e-02  -9.7022396e-03   4.5662004e-02  -6.5344659e-03   5.1519319e-02   1.8926483e-02
   1.0197719e-02   9.0080615e-05   4.2455014e-03   4.1738446e-03  -8.3069050e-03   1.1972433e-02  -1.8006008e-02   3.8851298e-02  -6.6240148e-03  -1.9884801e-02  -7.7001172e-02   4.2475526e-02   4.5130833e-02  -9.1457608e-02  -8.1178217e-02  -4.5588286e-02  -8.6134644e-02   2.7332228e-01  -6.8564899e-03  -2.1791330e-02   2.0035035e-02   5.4494836e-02   4.2206166e-02   1.0662268e-01   8.3991285e-02  -6.3523415e-02
  -6.3724995e-03  -6.9487172e-04  -6.1219046e-04  -7.5570115e-03   6.9605719e-03  -4.9815796e-03  -6.5360809e-03  -1.6848764e-02  -2.2033770e-02   1.7619345e-02   1.1028448e-01  -3.1465714e-02  -6.3649636e-02   3.6349450e-02   6.3628756e-02   6.0134808e-02   3.2256243e-02  -9.8738202e-02  -7.0439987e-02   6.8370073e-03  -9.8343309e-02  -3.6183935e-02   2.9909602e-02  -6.4589399e-02   6.1505558e-02   3.0684958e-02
  -3.8800072e-03   2.4610258e-03  -1.1022413e-03  -7.6770955e-03   3.2462666e-03   2.2013075e-02   1.2209884e-02  -3.9078630e-02   3.1064419e-02  -9.1563433e-02  -4.9796961e-02  -1.3917218e-01   3.2230820e-02   1.3128047e-01   5.0707234e-02  -1.0639369e-01   2.2441747e-04  -1.0793983e-01  -2.0299963e-01   3.7840913e-02   1.9958126e-01  -1.9161138e-02  -4.3412036e-02   3.7038241e-01   3.0540352e-02   1.1865079e-01
  -3.1779685e-03   4.1307507e-03  -1.0511149e-03  -1.1864025e-02   2.8974695e-03   2.5846733e-02   4.2078225e-03   5.0231190e-03  -1.5795175e-02  -2.9147776e-02   3.3530939e-02  -3.7077817e-02  -3.3671963e-02   1.5763671e-01   3.4841968e-02   5.3237742e-03   4.1464840e-02  -2.5989622e-02   5.7510802e-02  -1.3921744e-03   2.3423075e-01  -1.8117063e-01   2.5152248e-01   3.1843612e-01  -1.0926394e-01  -3.3632529e-01
   3.7241330e-03   1.1101064e-02  -2.0786424e-02  -2.2492473e-02   3.9485296e-02  -4.7872967e-03   1.1409848e-02   4.3967631e-02  -7.2031872e-02   6.5703845e-02  -4.2277001e-02   2.2913655e-01   7.5370429e-03  -3.3729032e-02  -2.5230473e-01  -9.3228970e-02   3.0166232e-01   1.1811064e-01  -1.3523554e-01   1.2101390e-01  -3.9154766e-01  -2.8254971e-01   2.6888965e-01   4.6485963e-01  -1.5932704e-02  -1.3715531e-01
   4.8605566e-03  -1.1718162e-02  -7.9359392e-04   9.6881571e-03  -3.1928252e-02   1.1404483e-02  -1.2255609e-02   3.1082805e-02  -5.1453723e-02   6.9398825e-02  -1.5098069e-02  -2.5320645e-02   1.4848473e-02  -8.6755824e-02   1.8059358e-01   1.4133960e-01   1.3334215e-03  -5.7026420e-02   3.3352447e-02  -1.0946219e-01   2.3335414e-01   2.1896115e-01  -1.0028110e-02  -3.4902267e-02   2.7844582e-01  -7.2442615e-02
   1.8617845e-03   4.2381050e-03  -1.0108136e-02   1.3220668e-02  -7.6479642e-03   2.5241304e-02   1.4219928e-02   2.5238437e-02   4.5297826e-02  -8.3243608e-02   6.1312555e-02  -5.1551745e-02  -2.5692045e-02   5.2118514e-02  -2.5621326e-02  -1.1405806e-01  -3.1520744e-03   6.2179321e-02  -1.3081552e-01  -9.9429206e-02   6.0621231e-02  -2.8464139e-01   1.7916055e-02  -3.0659571e-02   3.0534539e-01   1.4920926e-01
  -2.8189309e-03   9.9054450e-03   1.5150618e-02  -1.7270979e-02   2.2615722e-02  -9.9299577e-02  -8.9772814e-02   5.9655713e-02  -1.3019663e-01   1.2060400e-01  -2.8297693e-02   1.4040600e-01  -7.3562332e-02  -2.1855290e-01  -9.7487546e-02  -8.9538893e-02  -7.8424854e-02   2.0768165e-01  -1.6588254e-01  -8.7804951e-02  -5.7014250e-02  -1.3696029e-01   1.3417997e-01   7.7185354e-02   6.1633798e-01  -1.1680619e-01
  -7.0307612e-03   7.0492788e-03   1.9242675e-02  -1.3931556e-02   2.1860521e-02  -8.1378395e-02  -9.3572490e-02  -3.2357785e-03  -3.8876807e-02   3.0847814e-02   5.8815135e-02  -6.3891385e-02  -4.8448501e-02  -1.2707782e-01   2.9039669e-03  -9.0236583e-02  -1.5615928e-01   1.1706842e-01  -1.4861424e-01   3.9125442e-02   3.0314399e-01  -4.5832213e-02   4.4875119e-03  -1.5739646e-02   2.1913738e-01  -1.2667431e-01
   4.3659245e-04   1.1276545e-02   1.7533466e-02   5.2585484e-03  -2.4402219e-02  -1.1206344e-02   1.5580907e-02  -3.3891855e-02   1.4934696e-02  -7.1964164e-02  -4.0984318e-02   2.5617477e-02   2.4347941e-02   3.9454717e-02   5.3541638e-03   3.6980749e-02   2.3924836e-02  -7.6987356e-02   4.7571917e-02  -1.2795345e-02   2.5501166e-02  -1.3443474e-02  -7.3127304e-02  -2.0625901e-03   3.2335142e-02   8.6759949e-02
   1.0307359e-02  -3.2000899e-03  -1.7107712e-03   6.2468404e-03  -1.2339293e-02   2.6070385e-02  -2.4480228e-02   3.4931129e-02   8.7775059e-03  -2.9807156e-02  -6.1490986e-02   3.1216685e-02   3.7065873e-02  -9.6225303e-02  -1.0493098e-01  -5.3166729e-02  -1.0441254e-01   2.7640063e-01  -9.9022889e-02  -2.1131548e-02  -1.1086258e-02   1.6079653e-02   7.1127663e-02   9.7099332e-02   5.2075831e-02   8.3569687e-03
  -4.5658030e-03  -3.9175756e-03   7.6955938e-04  -7.1574326e-03   7.6257680e-03  -5.6516757e-03  -7.0796895e-03  -1.2050057e-02  -2.0300955e-02  -1.0836463e-02   7.8000528e-02  -1.6958285e-03  -4.8032099e-03   4.0860772e-02   2.3674829e-02   8.9312215e-02   4.4084980e-03  -9.0599988e-02  -7.1586961e-02   1.8240276e-02  -7.6444433e-02   2.3017996e-02   2.3867609e-02  -4.5348147e-02   1.3167773e-01   1.1605059e-01
  -4.6425798e-03  -4.3411917e-04  -3.1419424e-03  -1.0554558e-02   6.3788954e-03   1.9876573e-02   5.0592406e-03  -4.1629667e-02   2.9238540e-02  -8.2996402e-02  -4.9970526e-02  -1.4011363e-01   4.6329505e-02   1.3976264e-01   2.0958824e-03  -7.9341095e-02   3.1586760e-02  -1.2845902e-01  -2.3652073e-01   2.4923673e-02   1.3780639e-01  -6.6545588e-02  -5.8003182e-02   3.7840124e-01  -1.3862003e-02   4.3187549e-02
  -2.7861874e-03   6.2027426e-03  -4.2477075e-04  -1.1357490e-02   6.5072122e-03   1.9957548e-02  -1.4360159e-03  -3.6625144e-03   6.9176775e-03  -7.3251851e-02   3.6628489e-02  -2.8460675e-02  -4.0420104e-02   1.9493927e-01   2.4369368e-02  -4.0171378e-02   1.0441280e-01  -3.5969764e-02   2.0828827e-02   6.6184261e-02   2.9349957e-01  -1.9931260e-01   2.3361269e-01   3.5247289e-01  -1.2106320e-01  -2.8841291e-01
   4.1520250e-03   1.1121314e-02  -1.9434832e-02  -2.0432425e-02   3.5524584e-02  -9.0460159e-03   1.2232494e-02   4.0784639e-02  -6.2454730e-02   4.0565781e-02  -4.3223795e-02   2.1859134e-01   7.9830079e-03  -1.7514737e-02  -2.3091530e-01  -9.6539298e-02   2.8526022e-01   1.0673198e-01  -1.2372221e-01   1.1023694e-01  -3.8108921e-01  -2.7580479e-01   2.6586609e-01   4.5392998e-01   1.1996818e-02  -1.6047624e-01
   6.0372944e-03  -1.3409683e-02   1.7834509e-03   7.8435676e-03  -3.8169757e-02   1.3882110e-02  -7.5542650e-03   3.0065293e-02  -7.3240045e-02   8.3954892e-02  -2.7617895e-02  -9.7516697e-03   2.0062574e-02  -7.1738861e-02   1.8126650e-01   1.3277799e-01  -6.9057432e-02   1.2348943e-02   9.3440229e-02  -1.1710913e-01   2.3582828e-01   2.1036732e-01   8.6709988e-02   5.9150193e-03   3.4338784e-01  -1.9894116e-01
   3.7753197e-04   4.0520399e-03  -1.2652375e-02   1.6509176e-02  -7.2464398e-03   2.9914752e-02   1.5799030e-02   1.5998595e-02   5.9747084e-02  -8.6279415e-02   7.1403269e-02  -6.4046099e-02  -8.7634130e-03   4.9871765e-02  -1.1715441e-02  -1.2153264e-01   5.8163476e-03   3.7695402e-02  -1.3756639e-01  -8.0927341e-02   4.6918560e-02  -2.8908909e-01   6.3139100e-02  -4.8024020e-02   2.3956578e-01   1.8569451e-01
  -1.3594151e-03   1.3382623e-02   1.9173608e-02  -1.9220601e-02   1.6787290e-02  -9.8670537e-02  -8.8810932e-02   5.2969937e-02  -1.3791563e-01   1.1303586e-01  -3.4945733e-02   1.4643025e-01  -7.7701671e-02  -2.1024542e-01  -1.0894239e-01  -9.6268482e-02  -1.0965149e-01   2.2116833e-01  -1.3209511e-01  -1.1496469e-01  -6.4875999e-02  -1.5970135e-01   1.7261461e-01   1.4145194e-01   6.3211450e-01  -1.5284597e-01
  -7.0738972e-03   8.9713762e-03   2.0984054e-02  -1.4928157e-02   2.1017277e-02  -8.4747484e-02  -9.3606428e-02  -9.9006595e-03  -4.5555267e-02   3.8539950e-02   6.5070476e-02  -6.6011526e-02  -4.3974476e-02  -1.3234390e-01  -2.1192408e-02  -1.0005444e-01  -1.5692639e-01   1.3200799e-01  -1.2977496e-01   2.9085818e-02   2.9365424e-01  -7.3168045e-02   5.0953247e-02   2.1358636e-02   2.3347151e-01  -1.5455711e-01
   1.7668601e-03   1.3847404e-02   1.8528785e-02   3.2335701e-03  -2.5488157e-02  -7.1814842e-03   9.9689779e-03  -3.1543801e-02   1.4981392e-02  -7.7689363e-02  -4.6212185e-02   2.8238741e-02  -7.4829722e-03   3.1318721e-02  -9.4185131e-03   4.4498790e-02   3.7194829e-02  -7.6283750e-02   1.5882789e-02  -1.8870957e-02   2.1369706e-02  -1.7800744e-02  -1.6167615e-01   1.0649851e-02   8.0390492e-03   1.2601989e-01
   1.0299133e-02  -5.9071070e-03  -5.4554680e-03   8.3627818e-03  -1.4642051e-02   3.5002603e-02  -2.9358945e-02   3.6087993e-02   2.0732949e-02  -3.1376768e-02  -5.5239743e-02   2.5814327e-02   2.6849701e-02  -9.8363377e-02  -1.1540617e-01  -7.1525024e-02  -1.0882233e-01   2.6774233e-01  -1.5773081e-01  -1.8851627e-02  -2.0934142e-02  -1.4489431e-02   7.3403240e-02   7.4830153e-02   1.1718464e-02   5.0031722e-02
  -3.1437935e-03  -6.2051588e-03   3.0587279e-03  -6.5194682e-03   8.1657428e-03  -9.0718527e-03  -6.5206659e-03  -7.2292519e-03  -2.0277011e-02  -3.3702609e-02   4.3927538e-02   2.1247028e-02   4.7225665e-02   4.8831904e-02  -2.5673076e-03   1.0609432e-01  -1.0971674e-02  -9.7896937e-02  -5.2710932e-02   2.1558126e-02  -4.5680786e-02   6.9270725e-02   1.2507537e-02  -2.7562595e-02   1.6767072e-01   1.7800894e-01
  -4.9946573e-03  -3.9069423e-03  -4.3563704e-03  -1.2509178e-02   8.0563590e-03   1.6684172e-02  -7.1929067e-04  -4.0696626e-02   2.4373890e-02  -6.7975903e-02  -4.9352025e-02  -1.2518484e-01   5.6719375e-02   1.3429021e-01  -4.2005905e-02  -5.2419401e-02   4.9730546e-02  -1.3633152e-01  -2.4083063e-01   1.4904008e-02   6.6365786e-02  -9.0642236e-02  -7.1171497e-02   3.3890356e-01  -3.4383940e-02  -2.0373144e-02
  -2.4061635e-03   8.2011281e-03  -3.5799921e-05  -1.0587659e-02   1.0071500e-02   1.2877186e-02  -5.6428582e-03  -1.4052875e-02   2.9323153e-02  -1.0297462e-01   3.8048879e-02  -2.0673048e-02  -4.1445994e-02   2.1080667e-01   4.0487330e-03  -8.0784020e-02   1.5611499e-01  -4.2049384e-02  -1.0097194e-02   1.2087868e-01   3.1230420e-01  -2.0060503e-01   1.9481698e-01   3.4164900e-01  -1.4027053e-01  -2.1883113e-01
   4.4764286e-03   1.0187398e-02  -1.8719211e-02  -1.7493625e-02   3.0855663e-02  -1.3222920e-02   1.2280482e-02   3.8160349e-02  -5.1383859e-02   1.7129858e-02  -4.2856287e-02   2.0490870e-01   1.1921605e-02  -3.4576126e-03  -2.0483001e-01  -1.0213081e-01   2.5462351e-01   9.2540854e-02  -1.0330910e-01   9.8273516e-02  -3.6317229e-01  -2.5919621e-01   2.5238074e-01   4.2190276e-01   3.8590481e-02  -1.7339952e-01
   7.2043108e-03  -1.5508070e-02   4.4852047e-03   6.4198025e-03  -4.2354174e-02   1.5922142e-02  -3.4010090e-03   2.7519707e-02  -8.8545713e-02   9.5474088e-02  -3.9088947e-02   3.4479979e-03   2.6082620e-02  -5.8780524e-02   1.7416214e-01   1.1790881e-01  -1.3032011e-01   6.9108119e-02   1.3854885e-01  -1.2375690e-01   2.2791294e-01   1.8803858e-01   1.6572884e-01   4.2660851e-02   3.7065753e-01  -2.9233865e-01
  -1.1984540e-03   3.3001980e-03  -1.4963142e-02   1.9080415e-02  -6.4943336e-03   3.3310221e-02   1.5898933e-02   9.6634305e-03   7.0636562e-02  -8.3745201e-02   7.6875760e-02  -7.3587514e-02   2.9426889e-03   4.3394009e-02  -1.9341728e-03  -1.2390758e-01   1.2409409e-02   1.2899476e-02  -1.4077616e-01  -6.0137424e-02   3.5146515e-02  -2.8710763e-01   8.8657429e-02  -7.0812041e-02   1.6885512e-01   2.1170161e-01
  -3.3820438e-04   1.6658657e-02   2.2238442e-02  -1.9971960e-02   1.0709119e-02  -9.6993995e-02  -8.6904695e-02   4.1536442e-02  -1.3889865e-01   1.0350753e-01  -3.3799101e-02   1.4468801e-01  -7.5219486e-02  -1.9556417e-01  -1.1383340e-01  -1.1079505e-01  -1.4163310e-01   2.2845405e-01  -1.0426736e-01  -1.3789980e-01  -6.5999381e-02  -1.8560832e-01   2.2781326e-01   1.9848167e-01   6.1751218e-01  -1.7986960e-01
  -7.1094512e-03   1.0733292e-02   2.3108397e-02  -1.6059985e-02   2.0413198e-02  -8.7515021e-02  -9.3832139e-02  -1.5275121e-02  -5.1819559e-02   4.7806846e-02   6.8175550e-02  -6.5468335e-02  -4.1542114e-02  -1.3904017e-01  -4.6928136e-02  -1.1079994e-01  -1.5155731e-01   1.4594035e-01  -1.1478683e-01   1.9320374e-02   2.7979076e-01  -1.0015679e-01   8.4492378e-02   5.7660628e-02   2.3703487e-01  -1.7796927e-01
   2.9410610e-03   1.7209315e-02   2.0439368e-02   8.2139621e-04  -2.6861334e-02  -4.9291901e-03   6.2470641e-03  -3.1051181e-02   1.3903196e-02  -8.2461641e-02  -4.9692776e-02   2.4398848e-02  -2.8027604e-02   3.1020991e-02  -1.2008522e-02   4.4625061e-02   4.3915683e-02  -7.3717778e-02   6.2804297e-03  -2.7321118e-02   9.8388714e-03  -2.2129443e-02  -2.0928742e-01   2.7310917e-02  -1.6382372e-02   1.3166839e-01
   1.0233561e-02  -7.5027428e-03  -6.6374611e-03   1.0073193e-02  -1.5192510e-02   3.8108073e-02  -3.1596613e-02   4.1287821e-02   2.7941524e-02  -2.6643459e-02  -5.6701493e-02   2.6281102e-02   1.6391649e-02  -9.6515380e-02  -1.1239107e-01  -9.6621298e-02  -9.9413360e-02   2.5156158e-01  -1.8006397e-01  -1.8785870e-02  -1.0578135e-02  -3.7239576e-02   5.2640167e-02   4.4297741e-02  -2.5631002e-02   6.1730631e-02
  -2.2974508e-03  -7.2171220e-03   5.6823736e-03  -5.8511879e-03   8.5215718e-03  -1.4138020e-02  -5.3721470e-03  -3.4087117e-03  -2.2073174e-02  -4.7281577e-02   1.3768419e-02   3.3820312e-02   8.3742661e-02   5.7326854e-02  -1.3596050e-02   1.0987002e-01  -1.2795752e-02  -1.1773429e-01  -1.9972119e-02   1.7999044e-02  -1.3679361e-02   9.7274339e-02  -2.7172700e-03  -1.2269260e-02   1.6454688e-01   2.0858582e-01
  -4.9516280e-03  -7.5275693e-03  -4.7043705e-03  -1.3218797e-02   8.2536400e-03   1.3098407e-02  -4.4918379e-03  -3.6364532e-02   1.6797068e-02  -4.7424965e-02  -4.8713647e-02  -9.6854906e-02   6.2898419e-02   1.1633622e-01  -7.7163057e-02  -2.7234740e-02   5.6085717e-02  -1.3304248e-01  -2.1818449e-01   7.1381442e-03  -4.4457406e-03  -9.1324400e-02  -7.9340891e-02   2.6252515e-01  -3.4034716e-02  -7.0757844e-02
  -2.0814425e-03   1.0049830e-02  -5.1937167e-05  -9.5288388e-03   1.3451997e-02   5.3592871e-03  -7.7297899e-03  -2.5184509e-02   4.9195041e-02  -1.1713625e-01   3.8989274e-02  -1.5398079e-02  -3.7286252e-02   2.0498529e-01  -2.2658468e-02  -1.1226485e-01   1.9388797e-01  -4.3273500e-02  -3.2500807e-02   1.5978799e-01   2.9670952e-01  -1.8404962e-01   1.4129535e-01   2.9403961e-01  -1.6275531e-01  -1.3591441e-01
   4.8080363e-03   8.6314065e-03  -1.8316718e-02  -1.3889937e-02   2.5679197e-02  -1.7180942e-02   1.1387315e-02   3.6327045e-02  -3.9118795e-02  -4.1593387e-03  -4.1938747e-02   1.9124591e-01   1.7278504e-02   9.1925928e-03  -1.7771020e-01  -1.1016405e-01   2.1495029e-01   7.5277466e-02  -7.6240888e-02   8.6030995e-02  -3.3953048e-01  -2.3502940e-01   2.2564850e-01   3.7482132e-01   6.4281228e-02  -1.7526042e-01
   8.2646788e-03  -1.7745358e-02   7.1326117e-03   5.3885051e-03  -4.4520901e-02   1.7491877e-02   1.2883636e-04   2.3938166e-02  -9.7756425e-02   1.0428920e-01  -5.0141256e-02   1.4790541e-02   3.2290564e-02  -4.8875296e-02   1.5953703e-01   9.9632848e-02  -1.7886553e-01   1.1026104e-01   1.6606098e-01  -1.2955703e-01   2.1110783e-01   1.5427538e-01   2.2228106e-01   7.3752116e-02   3.6375792e-01  -3.4810251e-01
  -2.7030572e-03   2.3733799e-03  -1.6549678e-02   2.0642119e-02  -5.3966681e-03   3.4769501e-02   1.4903063e-02   6.3781698e-03   7.6947438e-02  -7.6200740e-02   7.7375851e-02  -7.7828086e-02   9.9070896e-03   3.6177590e-02   3.6289419e-03  -1.2103426e-01   2.0008195e-02  -1.1534050e-02  -1.3882611e-01  -3.9517407e-02   2.6081040e-02  -2.7944073e-01   9.3863146e-02  -9.6414960e-02   1.0168773e-01   2.2524613e-01
   1.5686467e-04   1.9313353e-02   2.4280641e-02  -1.9416450e-02   4.8248577e-03  -9.4478017e-02  -8.4149612e-02   2.7066010e-02  -1.3356645e-01   9.2343415e-02  -2.6710363e-02   1.3614867e-01  -6.7522485e-02  -1.7671521e-01  -1.1265768e-01  -1.3122646e-01  -1.7215401e-01   2.2824275e-01  -8.1164971e-02  -1.5603743e-01  -5.6996868e-02  -2.1403298e-01   2.8801041e-01   2.4330282e-01   5.7551707e-01  -1.9401702e-01
  -7.0550261e-03   1.2358051e-02   2.5461032e-02  -1.7248976e-02   1.9898053e-02  -8.9201515e-02  -9.4064570e-02  -1.9794763e-02  -5.7166758e-02   5.8717971e-02   6.8738551e-02  -6.1019489e-02  -4.0090754e-02  -1.4472592e-01  -7.3687333e-02  -1.2259139e-01  -1.3973815e-01   1.5935800e-01  -1.0504416e-01   1.0376753e-02   2.5868710e-01  -1.2651472e-01   1.0835883e-01   9.0767519e-02   2.3249018e-01  -1.9724990e-01
   3.6681839e-03   2.0402948e-02   2.2615303e-02  -1.2704786e-03  -2.7751074e-02  -4.7430941e-03   5.1156389e-03  -3.3101360e-02   1.3678565e-02  -8.4053030e-02  -4.8544912e-02   1.7727593e-02  -3.5442084e-02   4.0576478e-02  -4.8174599e-03   3.8484040e-02   4.6079898e-02  -7.0801410e-02   1.3693141e-02  -3.1845304e-02  -5.3117438e-03  -2.3705094e-02  -2.1505168e-01   3.9786540e-02  -3.1266785e-02   1.0657409e-01
   1.0107176e-02  -7.7685992e-03  -5.5701771e-03   1.0894030e-02  -1.4242263e-02   3.6143823e-02  -3.1018937e-02   4.8835937e-02   3.0508805e-02  -1.8802436e-02  -6.2455783e-02   3.0174469e-02   7.2005279e-03  -9.1212746e-02  -9.7626515e-02  -1.2357064e-01  -8.0462041e-02   2.3397108e-01  -1.7049399e-01  -2.3812982e-02   1.3810211e-02  -5.4192555e-02   1.8128537e-02   1.1962928e-02  -5.1877332e-02   4.9484487e-02
  -2.0818872e-03  -6.9075517e-03   7.8821993e-03  -5.2578736e-03   8.7199866e-03  -1.9334864e-02  -4.1246600e-03  -1.6677461e-03  -2.5163418e-02  -5.0142420e-02  -8.0990891e-03   3.4446541e-02   9.9547685e-02   6.3230976e-02  -1.1944723e-02   1.0342384e-01  -2.7364471e-03  -1.4468103e-01   1.7455056e-02   1.0568397e-02   1.1791823e-02   1.0617355e-01  -1.9621618e-02   1.0795571e-03   1.2569656e-01   2.0627755e-01
  -4.5639990e-03  -1.0835636e-02  -4.2221378e-03  -1.2523700e-02   7.0578710e-03   9.9120245e-03  -5.8524740e-03  -2.8970394e-02   7.0605124e-03  -2.2832664e-02  -4.8470987e-02  -5.9516706e-02   6.3860809e-02   8.7870767e-02  -9.9141528e-02  -4.7301182e-03   5.2723498e-02  -1.2095644e-01  -1.7444750e-01  -3.9418468e-04  -6.4401136e-02  -7.2023182e-02  -7.9403686e-02   1.6330887e-01  -1.9231702e-02  -1.0818567e-01
  -1.8385099e-03   1.1692058e-02  -5.6362966e-04  -8.1338497e-03   1.6486677e-02  -1.7857830e-03  -7.4819290e-03  -3.5912620e-02   6.4766779e-02  -1.1652007e-01   4.0262845e-02  -1.4466277e-02  -2.9590709e-02   1.7886363e-01  -5.1011835e-02  -1.3152817e-01   2.1580863e-01  -3.9114675e-02  -4.5577064e-02   1.8086704e-01   2.5644107e-01  -1.5054482e-01   7.8900735e-02   2.2104722e-01  -1.8534652e-01  -4.7884435e-02
   5.2184138e-03   6.7548174e-03  -1.8028753e-02  -9.6933603e-03   2.0244477e-02  -2.0712912e-02   9.8242563e-03   3.4954678e-02  -2.5858532e-02  -2.2466295e-02  -4.0271368e-02   1.8004120e-01   2.2196473e-02   2.1488236e-02  -1.5203297e-01  -1.2001787e-01   1.7080638e-01   5.5280969e-02  -4.5243840e-02   7.4068466e-02  -3.1119110e-01  -2.0480219e-01   1.8634703e-01   3.1737560e-01   9.1131614e-02  -1.6684289e-01
   9.1536831e-03  -1.9880062e-02   9.5635373e-03   4.7131153e-03  -4.4809481e-02   1.8567215e-02   3.1464298e-03   1.9734674e-02  -1.0169401e-01   1.1076449e-01  -6.0922849e-02   2.5137952e-02   3.8020100e-02  -4.2396122e-02   1.3818864e-01   8.1063174e-02  -2.1220699e-01   1.3443812e-01   1.7499956e-01  -1.3488026e-01   1.8704912e-01   1.1204251e-01   2.5513478e-01   9.7982898e-02   3.2950235e-01  -3.6548883e-01
  -4.0167460e-03   1.6050473e-03  -1.7111421e-02   2.1082633e-02  -4.0869188e-03   3.4013158e-02   1.3396887e-02   5.7912119e-03   7.8154072e-02  -6.4716905e-02   7.3848532e-02  -7.5622834e-02   1.3424132e-02   3.0648440e-02   6.1304169e-03  -1.1284680e-01   3.0561203e-02  -3.3625709e-02  -1.3114295e-01  -2.2363019e-02   2.0746412e-02  -2.6726280e-01   8.2580552e-02  -1.2252489e-01   4.5149749e-02   2.2745763e-01
   1.4258685e-04   2.1159307e-02   2.5459608e-02  -1.7799357e-02  -4.6307013e-04  -9.1434897e-02  -8.1019622e-02   1.1603047e-02  -1.2279783e-01   7.9704814e-02  -1.6672490e-02   1.2257725e-01  -5.6308433e-02  -1.5460686e-01  -1.0771274e-01  -1.5617608e-01  -1.9844019e-01   2.1953845e-01  -6.1302498e-02  -1.6815420e-01  -3.7587590e-02  -2.4488896e-01   3.4038245e-01   2.7398889e-01   5.1146359e-01  -1.9546283e-01
  -6.8753165e-03   1.3788138e-02   2.7812596e-02  -1.8185836e-02   1.9268986e-02  -8.9451089e-02  -9.3772824e-02  -2.4085972e-02  -6.1477344e-02   7.1432013e-02   6.8101719e-02  -5.2133799e-02  -3.8286940e-02  -1.4863797e-01  -9.9250586e-02  -1.3443756e-01  -1.2264197e-01   1.7363126e-01  -1.0081128e-01   2.2229478e-03   2.3049812e-01  -1.4989067e-01   1.2709264e-01   1.1694134e-01   2.2263166e-01  -2.1103493e-01
   3.8334303e-03   2.2662567e-02   2.4401248e-02  -2.2340235e-03  -2.7714865e-02  -6.3953607e-03   7.1113492e-03  -3.8204696e-02   1.5343083e-02  -8.0717500e-02  -4.0515341e-02   1.2888945e-02  -3.1118430e-02   5.9298371e-02   8.2317078e-03   2.9742662e-02   4.7084763e-02  -6.7770455e-02   2.9643501e-02  -2.8398595e-02  -1.9062150e-02  -1.9172701e-02  -1.8640740e-01   3.9660319e-02  -2.7719818e-02   6.1753382e-02
   9.8606747e-03  -6.7519225e-03  -3.0344047e-03   1.0382442e-02  -1.2176529e-02   3.0802270e-02  -2.8066532e-02   5.6811152e-02   2.9721219e-02  -1.0926843e-02  -6.8399497e-02   3.4115432e-02   2.9712964e-04  -8.3837762e-02  -7.4756364e-02  -1.4775083e-01  -5.8307309e-02   2.2052419e-01  -1.3806514e-01  -3.4324186e-02   4.2191435e-02  -6.8591677e-02  -1.7900466e-02  -1.5058173e-02  -6.2286663e-02   2.0476788e-02
  -2.4338852e-03  -5.4538036e-03   8.9326490e-03  -4.7675840e-03   8.7884607e-03  -2.3157860e-02  -2.9857286e-03  -2.9573954e-03  -2.8774081e-02  -4.3066224e-02  -1.8923569e-02   2.3661589e-02   9.3383914e-02   6.4192498e-02  -2.5886968e-03   9.1682242e-02   1.5790507e-02  -1.7233571e-01   5.0197670e-02   3.0833109e-03   2.4073828e-02   9.8196021e-02  -3.5170723e-02   1.3927681e-02   6.1004357e-02   1.7451665e-01
  -3.9193365e-03  -1.3397043e-02  -3.0172471e-03  -1.0465603e-02   4.6712683e-03   7.8114585e-03  -4.5286458e-03  -1.9299064e-02  -4.0969451e-03   3.4771800e-03  -4.8323078e-02  -1.8620552e-02   5.8634138e-02   5.1840611e-02  -1.0455485e-01   1.4668556e-02   4.2181344e-02  -1.0278818e-01  -1.1838124e-01  -1.0042798e-02  -1.0523822e-01  -3.9554137e-02  -6.8882931e-02   5.6567228e-02   2.0301136e-03  -1.3387715e-01
  -1.6850509e-03   1.3139719e-02  -1.5546932e-03  -6.4423570e-03   1.8962766e-02  -7.8799889e-03  -4.8848381e-03  -4.5198207e-02   7.4808793e-02  -1.0379904e-01   4.2515748e-02  -1.9037638e-02  -2.0475221e-02   1.3631365e-01  -7.6319583e-02  -1.3707967e-01   2.2157520e-01  -3.0036759e-02  -4.9981215e-02   1.8373016e-01   2.0148134e-01  -1.0428692e-01   1.3443825e-02   1.3569147e-01  -2.0501644e-01   3.6382389e-02
   5.7371395e-03   4.8103931e-03  -1.7771046e-02  -4.8499178e-03   1.4744442e-02  -2.3526160e-02   8.3191353e-03   3.3356564e-02  -1.2182717e-02  -3.7550846e-02  -3.6883988e-02   1.7197359e-01   2.5035456e-02   3.3289207e-02  -1.2817554e-01  -1.2971640e-01   1.2511785e-01   3.3835057e-02  -1.2682213e-02   6.1330478e-02  -2.7711388e-01  -1.6982717e-01   1.3767342e-01   2.5373171e-01   1.2045173e-01  -1.4802348e-01
   9.8349858e-03  -2.1736452e-02   1.1624282e-02   4.3817966e-03  -4.3452941e-02   1.9149909e-02   5.8248094e-03   1.5299776e-02  -1.0152698e-01   1.1507959e-01  -7.1240515e-02   3.5236731e-02   4.2585538e-02  -3.9662430e-02   1.1173828e-01   6.5339036e-02  -2.2934082e-01   1.4190768e-01   1.6591634e-01  -1.4067445e-01   1.5823558e-01   6.5007214e-02   2.6579046e-01   1.1461761e-01   2.7626195e-01  -3.4600030e-01
  -5.0902463e-03   1.2744149e-03  -1.6567936e-02   2.0342771e-02  -2.7799757e-03   3.1216791e-02   1.1932175e-02   7.4319927e-03   7.3983213e-02  -5.1421537e-02   6.7999716e-02  -6.8768868e-02   1.4908777e-02   2.6044117e-02   8.5975250e-03  -9.8789256e-02   4.3180867e-02  -5.0499247e-02  -1.1738214e-01  -1.3473690e-02   2.1194625e-02  -2.5259786e-01   6.1366340e-02  -1.4513917e-01   9.8257722e-04   2.2316442e-01
  -2.6728756e-04   2.2122618e-02   2.6077751e-02  -1.5451783e-02  -4.7899760e-03  -8.8325642e-02  -7.8173632e-02  -3.1161307e-03  -1.0718517e-01   6.7053868e-02  -6.7864294e-03   1.0869456e-01  -4.2862621e-02  -1.2621273e-01  -1.0393022e-01  -1.8576220e-01  -2.1598837e-01   2.0178816e-01  -4.4628879e-02  -1.7063273e-01  -1.1841662e-02  -2.7717228e-01   3.7391107e-01   2.8782801e-01   4.3757510e-01  -1.8967381e-01
  -6.5875055e-03   1.5000574e-02   2.9909687e-02  -1.8575320e-02   1.8248179e-02  -8.7940519e-02  -9.2270362e-02  -2.8497366e-02  -6.5538853e-02   8.4677016e-02   6.7568289e-02  -4.1389892e-02  -3.5047697e-02  -1.5417785e-01  -1.1879535e-01  -1.4354085e-01  -1.0415027e-01   1.9072090e-01  -9.9810205e-02  -7.6673213e-03   1.9949815e-01  -1.6779353e-01   1.4481562e-01   1.3527599e-01   2.0500783e-01  -2.1483776e-01
   3.4681179e-03   2.3597504e-02   2.5264695e-02  -1.5344667e-03  -2.6730251e-02  -9.1048588e-03   1.2179142e-02  -4.6063569e-02   1.8239760e-02  -7.3025854e-02  -2.5223480e-02   1.0669879e-02  -1.9116266e-02   7.9975337e-02   2.5021457e-02   2.4496303e-02   4.7588352e-02  -6.3003008e-02   4.6855932e-02  -1.8682671e-02  -2.4080029e-02  -5.7612033e-03  -1.3678311e-01   2.4379937e-02  -6.9438467e-03   1.5518866e-02
   9.4229691e-03  -4.8000555e-03  -3.0833336e-05   8.3971786e-03  -9.3681734e-03   2.4115052e-02  -2.3666321e-02   6.3435099e-02   2.7836901e-02  -4.4062742e-03  -7.0942649e-02   3.6119579e-02  -3.8762300e-03  -7.4840445e-02  -4.9163357e-02  -1.6608169e-01  -3.8768506e-02   2.1475157e-01  -9.4518149e-02  -4.7202078e-02   6.3407188e-02  -8.2264858e-02  -4.3973020e-02  -3.2458499e-02  -5.3389200e-02  -1.9818455e-02
  -3.2088207e-03  -3.2420836e-03   8.3268894e-03  -4.3346334e-03   8.7759583e-03  -2.4505107e-02  -2.0508469e-03  -7.7363919e-03  -3.2071640e-02  -2.8449316e-02  -1.7840776e-02   3.6429633e-03   6.7647579e-02   5.8762517e-02   9.1738327e-03   8.0078665e-02   3.7967338e-02  -1.9438041e-01   7.0902795e-02  -1.0607204e-03   1.9670576e-02   7.8531168e-02  -4.6424368e-02   2.7412658e-02  -1.6151916e-02   1.2080081e-01
  -3.1329349e-03  -1.4924886e-02  -1.2749849e-03  -7.2450248e-03   1.4256331e-03   7.1363385e-03  -4.9721210e-04  -8.5918918e-03  -1.5686547e-02   2.8747782e-02  -4.7241056e-02   2.0639653e-02   4.6884312e-02   1.2350396e-02  -9.1717515e-02   3.0684852e-02   2.7272045e-02  -8.0850284e-02  -6.0362189e-02  -2.3163635e-02  -1.2192562e-01  -1.9251236e-03  -4.6659788e-02  -4.4373637e-02   2.2617419e-02  -1.4896781e-01
  -1.6088443e-03   1.4320183e-02  -2.9464321e-03  -4.4746111e-03   2.0739176e-02  -1.2553573e-02  -3.8649653e-04  -5.2204190e-02   7.9101045e-02  -8.2292212e-02   4.6212139e-02  -2.8580984e-02  -1.2190679e-02   8.3946387e-02  -9.5046803e-02  -1.2968926e-01   2.1244261e-01  -1.6893485e-02  -4.8145655e-02   1.7061022e-01   1.4056616e-01  -5.0130571e-02  -5.0360801e-02   4.8588233e-02  -2.1704625e-01   1.0822098e-01
   6.3335526e-03   3.0190365e-03  -1.7561983e-02   6.2770300e-04   9.3144269e-03  -2.5252139e-02   7.6934712e-03   3.0944292e-02   6.1166106e-04  -5.1020403e-02  -3.0658546e-02   1.6380359e-01   2.4295413e-02   4.0808560e-02  -1.0337217e-01  -1.3558467e-01   7.7282845e-02   1.3372723e-02   2.0956142e-02   4.3842628e-02  -2.3329880e-01  -1.3185800e-01   8.3790159e-02   1.9023718e-01   1.4793924e-01  -1.1590025e-01
   1.0290973e-02  -2.3167174e-02   1.3178287e-02   4.3332560e-03  -4.0786403e-02   1.9289260e-02   8.3705015e-03   1.1062455e-02  -9.8784294e-02   1.1674289e-01  -8.0771017e-02   4.4982352e-02   4.5378326e-02  -4.1607008e-02   8.2728838e-02   5.5536746e-02  -2.3093895e-01   1.3411799e-01   1.4123328e-01  -1.4877711e-01   1.2797039e-01   1.6430804e-02   2.5787002e-01   1.2454370e-01   2.1148770e-01  -2.9255014e-01
  -5.9663372e-03   1.6413703e-03  -1.5064637e-02   1.8236360e-02  -1.6219371e-03   2.6894970e-02   1.0788743e-02   1.1020380e-02   6.4728376e-02  -3.9178375e-02   6.1747481e-02  -6.2046814e-02   1.5335955e-02   1.8793739e-02   1.4929607e-02  -7.8330681e-02   5.4163350e-02  -5.9763505e-02  -9.7163805e-02  -1.7438399e-02   2.8976890e-02  -2.3902749e-01   3.7712065e-02  -1.5759421e-01  -3.4764968e-02   2.1753887e-01
  -8.5739954e-04   2.2155389e-02   2.6538915e-02  -1.2456971e-02  -8.0404610e-03  -8.5610045e-02  -7.5922305e-02  -1.6260119e-02  -8.7430291e-02   5.6967610e-02   6.5708220e-04   1.0246056e-01  -2.7435363e-02  -8.5021766e-02  -1.0763445e-01  -2.2071674e-01  -2.1815971e-01   1.7568978e-01  -3.2894559e-02  -1.5914625e-01   1.4083512e-02  -3.0822982e-01   3.8185161e-01   2.7938671e-01   3.7266079e-01  -1.8319505e-01
  -6.2842082e-03   1.6078984e-02   3.1471832e-02  -1.8445865e-02   1.6691852e-02  -8.4466996e-02  -8.9237303e-02  -3.2678032e-02  -7.0409524e-02   9.5845407e-02   6.7744742e-02  -3.5022784e-02  -3.0076405e-02  -1.6839698e-01  -1.2606095e-01  -1.4641801e-01  -9.1255002e-02   2.1210074e-01  -9.7313675e-02  -2.2804627e-02   1.7170399e-01  -1.7898422e-01   1.6363965e-01   1.4985099e-01   1.7116685e-01  -2.0474174e-01
   2.6637435e-03   2.3379954e-02   2.4868396e-02   5.8518374e-04  -2.5047282e-02  -1.1789174e-02   1.9507564e-02  -5.5242426e-02   2.0626018e-02  -6.4358110e-02  -4.5738064e-03   6.0984574e-03  -5.0159514e-03   9.0045589e-02   4.5512715e-02   2.9160834e-02   4.4202987e-02  -5.4863724e-02   6.2366856e-02  -8.5026292e-03  -1.4414918e-02   1.5193490e-02  -8.1679203e-02   1.7605045e-03   1.7358979e-02  -1.4909671e-02
   8.7824161e-03  -2.4731758e-03   2.5264076e-03   5.3100779e-03  -6.2702492e-03   1.7968894e-02  -1.8707667e-02   6.7196279e-02   2.7135340e-02   1.0466103e-03  -6.7876019e-02   3.7124872e-02  -5.0697234e-03  -6.2776959e-02  -2.7070744e-02  -1.7725798e-01  -2.4462649e-02   2.1729947e-01  -5.2036102e-02  -5.7013672e-02   6.8641102e-02  -9.5066255e-02  -5.1887494e-02  -4.0541370e-02  -2.2477960e-02  -6.7198098e-02
  -4.2199525e-03  -7.3997748e-04   5.9474192e-03  -3.9437571e-03   8.7201845e-03  -2.2962828e-02  -1.2456342e-03  -1.5744779e-02  -3.4410605e-02  -9.8565483e-03  -5.8153699e-03  -2.2083408e-02   2.7920081e-02   4.6883838e-02   1.9114207e-02   7.3089491e-02   5.8744733e-02  -2.0620674e-01   7.6106873e-02   3.4514436e-04  -1.1820932e-03   5.3285811e-02  -5.0903423e-02   4.2181019e-02  -9.1544964e-02   5.4768533e-02
  -2.3248026e-03  -1.5315390e-02   7.7317720e-04  -3.1885543e-03  -2.3082569e-03   7.7763470e-03   6.0682623e-03   1.5478476e-03  -2.6701194e-02   5.0110220e-02  -4.3755567e-02   5.4470741e-02   2.9590566e-02  -2.5691742e-02  -6.1362694e-02   4.3127038e-02   1.1340258e-02  -5.6800113e-02  -1.0157181e-02  -3.9480250e-02  -1.1340698e-01   3.3293114e-02  -1.3178218e-02  -1.3017793e-01   3.7705427e-02  -1.5337204e-01
  -1.5620448e-03   1.5106026e-02  -4.5777840e-03  -2.1937806e-03   2.1640203e-02  -1.5776165e-02   5.5071646e-03  -5.6557226e-02   7.8176759e-02  -5.5689645e-02   5.1754903e-02  -4.0000163e-02  -6.3608755e-03   3.1086196e-02  -1.0576301e-01  -1.1213278e-01   1.9234715e-01  -1.1892603e-03  -4.3401856e-02   1.4632027e-01   7.9801249e-02   6.2067684e-03  -1.0843620e-01  -3.3690772e-02  -2.1425894e-01   1.6035922e-01
   6.8931534e-03   1.6358733e-03  -1.7518422e-02   6.3674851e-03   4.1628203e-03  -2.5626035e-02   8.4828803e-03   2.7594015e-02   1.1110379e-02  -6.6188790e-02  -2.0831465e-02   1.4858590e-01   1.8708658e-02   3.7521242e-02  -7.3226736e-02  -1.3353513e-01   2.3294677e-02  -3.8814520e-03   5.7689150e-02   1.7014629e-02  -1.7571657e-01  -9.4454565e-02   2.8664682e-02   1.3674761e-01   1.6375892e-01  -6.8470114e-02
   1.0505772e-02  -2.4058635e-02   1.4089680e-02   4.3907900e-03  -3.7145220e-02   1.9052704e-02   1.0788126e-02   7.6056229e-03  -9.4969660e-02   1.1485810e-01  -8.9331564e-02   5.3204047e-02   4.5778654e-02  -4.9751451e-02   5.4121116e-02   5.4063639e-02  -2.1950598e-01   1.1319337e-01   1.0495263e-01  -1.6119464e-01   9.9554395e-02  -3.1015523e-02   2.3603786e-01   1.3039700e-01   1.4073516e-01  -2.1000468e-01
  -6.6641424e-03   2.7066991e-03  -1.2709496e-02   1.4553971e-02  -6.5924351e-04   2.1418410e-02   9.2682587e-03   1.6923338e-02   5.3012562e-02  -2.8440265e-02   5.5191544e-02  -5.5168446e-02   1.5628056e-02   1.4269344e-02   2.2823433e-02  -5.7326437e-02   6.3429306e-02  -6.2544370e-02  -7.3750777e-02  -3.1025699e-02   3.7674083e-02  -2.3194274e-01   1.7487721e-02  -1.5921310e-01  -5.7327280e-02   2.0558832e-01
  -1.5041004e-03   2.1506539e-02   2.6911876e-02  -8.6789194e-03  -1.0312260e-02  -8.3100935e-02  -7.3185029e-02  -2.8560275e-02  -6.7169410e-02   4.8855926e-02   7.0498889e-03   1.0260829e-01  -1.0382415e-02  -3.9926137e-02  -1.1534247e-01  -2.5208297e-01  -2.0638058e-01   1.4727759e-01  -2.3775050e-02  -1.4025239e-01   4.4862062e-02  -3.3176147e-01   3.6378816e-01   2.5263937e-01   3.1858719e-01  -1.6714962e-01
  -5.9657560e-03   1.6922096e-02   3.2566222e-02  -1.8103670e-02   1.4579360e-02  -7.9521124e-02  -8.5752379e-02  -3.5060912e-02  -7.4391842e-02   1.0514947e-01   6.5954189e-02  -3.0984287e-02  -2.2799787e-02  -1.8355388e-01  -1.2431161e-01  -1.4915988e-01  -8.4065606e-02   2.3440410e-01  -9.2424949e-02  -3.6444457e-02   1.4216773e-01  -1.8605665e-01   1.8209699e-01   1.5792184e-01   1.2857705e-01  -1.9293252e-01
   1.7014817e-03   2.2200381e-02   2.3522425e-02   3.2335024e-03  -2.3059219e-02  -1.3976780e-02   2.6179704e-02  -6.2464291e-02   2.3597244e-02  -5.5160452e-02   1.4304982e-02   2.2624530e-03   6.5254802e-03   9.4461453e-02   6.0095611e-02   3.7094976e-02   3.9729470e-02  -4.6433282e-02   7.1469598e-02   6.0003511e-03  -3.0281044e-04   3.7036663e-02  -3.7265493e-02  -2.5946300e-02   4.5945442e-02  -3.4900026e-02
   7.9491794e-03  -3.0984079e-04   3.8396363e-03   1.9950455e-03  -3.3951304e-03   1.4011171e-02  -1.3446018e-02   6.6795603e-02   2.7787725e-02   5.0820009e-03  -5.7731574e-02   3.5197780e-02  -3.6443980e-03  -5.3520316e-02  -9.2078379e-03  -1.7679544e-01  -1.8911536e-02   2.2826655e-01  -1.8453757e-02  -6.3244527e-02   5.9907453e-02  -1.0311372e-01  -3.8205251e-02  -3.8764107e-02   2.0988037e-02  -1.1020957e-01
  -5.2616602e-03   1.5248339e-03   2.1671214e-03  -3.6421062e-03   8.6822490e-03  -1.8957947e-02  -6.2962505e-04  -2.5732082e-02  -3.5208720e-02   9.2282743e-03   1.4249598e-02  -4.8325112e-02  -1.7992370e-02   3.1047891e-02   2.4393972e-02   7.2407136e-02   7.3866231e-02  -2.0582803e-01   6.6366970e-02   8.3397763e-03  -3.4940397e-02   2.8898456e-02  -4.7620333e-02   5.6711796e-02  -1.5071099e-01  -1.4138369e-02
  -1.6294387e-03  -1.4617380e-02   2.8111559e-03   1.2663747e-03  -6.1336841e-03   9.3176585e-03   1.4789752e-02   9.4090950e-03  -3.6725517e-02   6.4746086e-02  -3.6211939e-02   7.8949577e-02   8.9758660e-03  -6.0620454e-02  -1.5206909e-02   5.3481377e-02  -3.8435336e-03  -3.0774452e-02   2.6061660e-02  -5.8863156e-02  -8.0643112e-02   6.1513181e-02   2.9396866e-02  -1.9443083e-01   4.1502505e-02  -1.4316836e-01
  -1.5218768e-03   1.5346240e-02  -6.3755243e-03   5.1496986e-04   2.1551334e-02  -1.7589628e-02   1.2383109e-02  -5.8390626e-02   7.2162419e-02  -2.8388484e-02   6.0058907e-02  -5.2244427e-02  -4.4163295e-03  -1.8375698e-02  -1.0543656e-01  -8.5169730e-02   1.6328791e-01   1.7208288e-02  -3.7239909e-02   1.1339906e-01   2.6915325e-02   6.1435920e-02  -1.5764271e-01  -1.0576926e-01  -1.9541595e-01   1.9338270e-01
   7.3789046e-03   5.9870518e-04  -1.7507168e-02   1.1758267e-02  -4.3230305e-04  -2.5075316e-02   9.7800610e-03   2.4307258e-02   2.0644876e-02  -8.3456451e-02  -9.6406648e-03   1.2737115e-01   8.3718635e-03   3.1102971e-02  -4.2064068e-02  -1.2882095e-01  -3.5174172e-02  -1.9710868e-02   9.6616891e-02  -1.3482609e-02  -1.1190922e-01  -6.3452734e-02  -2.6134547e-02   9.4065594e-02   1.7361956e-01  -1.8820082e-02
   1.0509658e-02  -2.4405576e-02   1.4340766e-02   4.2914113e-03  -3.2858516e-02   1.8354289e-02   1.2619189e-02   5.7659965e-03  -9.0503127e-02   1.0948757e-01  -9.7708428e-02   6.1438786e-02   4.3578219e-02  -6.0420395e-02   2.5641289e-02   5.9329541e-02  -1.9587443e-01   8.0147729e-02   6.0433760e-02  -1.7628146e-01   7.2152755e-02  -7.6429502e-02   2.0503530e-01   1.3271347e-01   7.3901572e-02  -1.0960046e-01
  -7.2053336e-03   4.2576937e-03  -9.7039794e-03   9.6433370e-03   1.0009310e-04   1.5252672e-02   7.2091834e-03   2.4258955e-02   4.1213084e-02  -1.8409584e-02   4.9704235e-02  -4.5952800e-02   1.6983539e-02   1.8070896e-02   2.9707487e-02  -3.9905706e-02   7.3348399e-02  -6.0276332e-02  -5.2372690e-02  -4.9683090e-02   4.2420687e-02  -2.3331628e-01   6.5352348e-03  -1.5283977e-01  -6.0856303e-02   1.8497374e-01
  -2.1359802e-03   2.0683048e-02   2.7161245e-02  -4.6081123e-03  -1.1822005e-02  -8.0492216e-02  -6.9601889e-02  -3.9409079e-02  -4.9277338e-02   4.0487515e-02   1.2447503e-02   1.0355640e-01   7.0385965e-03  -2.2008392e-03  -1.2277195e-01  -2.7312680e-01  -1.8758919e-01   1.2172412e-01  -1.2717288e-02  -1.2121186e-01   8.2632557e-02  -3.4607781e-01   3.2126944e-01   2.1730458e-01   2.7041225e-01  -1.3668338e-01
  -5.5971720e-03   1.7247423e-02   3.3337551e-02  -1.7290001e-02   1.1955762e-02  -7.3731406e-02  -8.2246012e-02  -3.5764743e-02  -7.6369787e-02   1.1420144e-01   6.1291573e-02  -2.3789282e-02  -1.1730802e-02  -1.8972997e-01  -1.1770755e-01  -1.5603385e-01  -7.8111691e-02   2.5500042e-01  -8.6818612e-02  -4.1469868e-02   1.0792190e-01  -1.8795388e-01   1.9944900e-01   1.5323429e-01   8.9958194e-02  -1.8824205e-01
   8.9825706e-04   2.0265236e-02   2.1825312e-02   5.9766567e-03  -2.1313596e-02  -1.5332281e-02   3.0391512e-02  -6.6645884e-02   2.7079236e-02  -4.5443925e-02   2.6448551e-02   4.0273281e-03   1.3941686e-02   1.0064421e-01   6.1578489e-02   4.3003332e-02   4.0700541e-02  -3.9702690e-02   7.0319969e-02   2.6927840e-02   9.2217714e-03   5.5765722e-02  -1.1942432e-02  -5.7485807e-02   8.0826468e-02  -4.9023345e-02
   7.0118916e-03   1.3144421e-03   3.5095684e-03  -7.4829906e-04  -1.3232090e-03   1.3139784e-02  -8.4087013e-03   6.2650093e-02   2.9315679e-02   6.7436821e-03  -4.2429437e-02   2.8153714e-02  -5.2080673e-04  -5.3036578e-02   4.7988074e-03  -1.6329000e-01  -2.4453463e-02   2.4461706e-01   3.0150419e-03  -6.6262455e-02   4.3252214e-02  -1.0414054e-01  -6.7201384e-03  -2.6989844e-02   6.1599857e-02  -1.3977074e-01
  -6.1367605e-03   3.0743576e-03  -2.1688661e-03  -3.5160345e-03   8.7061604e-03  -1.3640133e-02  -2.0910408e-04  -3.5805237e-02  -3.4242684e-02   2.5659700e-02   3.8313940e-02  -6.8900542e-02  -6.1062971e-02   1.5709960e-02   2.4295498e-02   7.7240181e-02   8.0974665e-02  -1.9415937e-01   4.5848187e-02   2.1983776e-02  -7.4601613e-02   1.0829168e-02  -3.6868789e-02   6.7870142e-02  -1.8115783e-01  -7.6517438e-02
  -1.1603174e-03  -1.2960266e-02   4.5513854e-03   5.4497301e-03  -9.6738575e-03   1.1114785e-02   2.4732460e-02   1.3957065e-02  -4.5286269e-02   7.0838323e-02  -2.4350687e-02   9.1612199e-02  -1.1695796e-02  -9.1395530e-02   4.1922739e-02   6.2325484e-02  -1.7031892e-02  -3.1952483e-03   4.6269445e-02  -7.9325386e-02  -2.9161040e-02   7.9933834e-02   7.6835398e-02  -2.3389303e-01   2.9945821e-02  -1.1571729e-01
  -1.4791581e-03   1.5006193e-02  -8.2675193e-03   3.4735173e-03   2.0413958e-02  -1.8160933e-02   1.9526912e-02  -5.7412563e-02   6.1773340e-02  -5.0764303e-03   7.0837421e-02  -6.5241492e-02  -7.6336442e-03  -6.2570062e-02  -9.2614867e-02  -5.0895285e-02   1.2638237e-01   3.7432262e-02  -2.9208959e-02   7.4923263e-02  -1.3630836e-02   1.1081280e-01  -1.9673186e-01  -1.6281071e-01  -1.6296036e-01   2.0893163e-01
   7.7808010e-03  -3.9473407e-04  -1.7380543e-02   1.6763927e-02  -4.2381924e-03  -2.4173979e-02   1.1326992e-02   2.0495824e-02   3.0038564e-02  -1.0167911e-01   2.4210962e-03   1.0477953e-01  -4.5275070e-03   3.0993935e-02  -1.4712704e-02  -1.2496774e-01  -9.2435314e-02  -3.5199215e-02   1.3564602e-01  -4.0908578e-02  -4.8202434e-02  -4.0013573e-02  -7.7598661e-02   5.7700212e-02   1.8808830e-01   2.3596055e-02
   1.0350847e-02  -2.4314650e-02   1.3938517e-02   3.9779231e-03  -2.8226360e-02   1.7151013e-02   1.3565868e-02   5.7306309e-03  -8.5734891e-02   1.0140746e-01  -1.0612180e-01   7.2121164e-02   3.9058579e-02  -6.9245273e-02  -3.3662026e-03   6.9486163e-02  -1.6013705e-01   3.6633328e-02   1.0512635e-02  -1.9193445e-01   4.5159146e-02  -1.1796286e-01   1.7025915e-01   1.3074340e-01   2.1015250e-02  -2.1223973e-03
  -7.6721001e-03   6.1444647e-03  -6.5118415e-03   4.1026894e-03   7.0698368e-04   9.0832321e-03   5.0983147e-03   3.1565873e-02   3.0364771e-02  -9.0173283e-03   4.7854216e-02  -3.6301715e-02   1.9513442e-02   2.6951444e-02   3.6832218e-02  -2.4740591e-02   8.2920013e-02  -5.3641565e-02  -3.6509087e-02  -7.2105017e-02   4.4541808e-02  -2.4184665e-01   8.7819727e-03  -1.3830983e-01  -4.9438874e-02   1.6079889e-01
  -2.6139095e-03   1.9938746e-02   2.7500087e-02  -8.3302176e-04  -1.2911924e-02  -7.7790524e-02  -6.5925094e-02  -4.7582344e-02  -3.4300009e-02   3.1595424e-02   1.4757219e-02   1.0565380e-01   2.4423528e-02   2.9617477e-02  -1.3181010e-01  -2.8569425e-01  -1.6450957e-01   1.0115497e-01   1.7202654e-03  -1.0246637e-01   1.2011914e-01  -3.5274520e-01   2.5802437e-01   1.7673621e-01   2.3425529e-01  -9.9322439e-02
  -5.2391065e-03   1.7052799e-02   3.3630794e-02  -1.5673582e-02   8.9752909e-03  -6.7420580e-02  -7.8116550e-02  -3.5918972e-02  -7.7137838e-02   1.2263179e-01   5.5537389e-02  -1.4466050e-02   3.6053741e-03  -1.8956507e-01  -1.0464196e-01  -1.6340851e-01  -7.3563292e-02   2.7369246e-01  -7.9934795e-02  -3.7719570e-02   7.4751352e-02  -1.8165319e-01   2.1519493e-01   1.3736336e-01   5.5227418e-02  -1.8747613e-01
   3.7870984e-04   1.8112068e-02   2.0091891e-02   8.3909809e-03  -2.0202706e-02  -1.5314143e-02   3.1822479e-02  -6.7906718e-02   2.8440742e-02  -3.7892151e-02   3.0630755e-02   5.7947532e-03   1.6528385e-02   9.9904116e-02   5.4352330e-02   5.0737390e-02   4.4286623e-02  -3.2956578e-02   6.1793840e-02   4.6252163e-02   1.6543567e-02   7.1020988e-02  -7.1441067e-03  -8.1376780e-02   1.0475036e-01  -5.0619563e-02
   6.2063268e-03   1.9956239e-03   1.7648994e-03  -2.1332072e-03  -6.8605089e-04   1.5222528e-02  -4.7116171e-03   5.6538335e-02   3.1463397e-02   6.2160066e-03  -2.7444691e-02   1.8899076e-02   4.0941962e-03  -5.8789534e-02   1.2438674e-02  -1.4216492e-01  -3.7705028e-02   2.6041441e-01   1.1092294e-02  -6.4037188e-02   2.3357714e-02  -9.7433347e-02   3.2819360e-02  -1.1660746e-02   8.9892358e-02  -1.5389722e-01
  -6.6925767e-03   3.5599094e-03  -5.9242095e-03  -3.7017736e-03   8.8414281e-03  -8.5685729e-03   1.7029991e-05  -4.3657691e-02  -3.1873161e-02   3.6878738e-02   6.1914261e-02  -7.8653093e-02  -9.2690143e-02   4.7779038e-03   2.0964011e-02   8.5495989e-02   7.8603562e-02  -1.7422478e-01   2.1467769e-02   3.7396640e-02  -1.0987733e-01   3.3105213e-03  -2.0368725e-02   7.2421407e-02  -1.7578157e-01  -1.2261174e-01
  -9.7240571e-04  -1.0594256e-02   5.8357186e-03   8.6491469e-03  -1.2581853e-02   1.2485425e-02   3.4359250e-02   1.4910531e-02  -5.1697308e-02   6.8899223e-02  -9.8022573e-03   9.3056599e-02  -2.8416647e-02  -1.1535711e-01   1.0155419e-01   6.8336257e-02  -2.6226592e-02   2.4795134e-02   5.1393782e-02  -9.6691824e-02   3.1018062e-02   8.8383512e-02   1.2369991e-01  -2.4957190e-01   3.7253775e-03  -7.2435757e-02
  -1.3869232e-03   1.3941770e-02  -1.0049689e-02   6.3810655e-03   1.8288949e-02  -1.7810488e-02   2.5516324e-02  -5.2812493e-02   4.8766697e-02   1.1635807e-02   8.1764395e-02  -7.6500469e-02  -1.6801978e-02  -9.6473877e-02  -7.0016369e-02  -1.5143055e-02   8.4185393e-02   5.7519239e-02  -1.9083702e-02   3.6407079e-02  -4.3514016e-02   1.4995512e-01  -2.2637643e-01  -2.0499374e-01  -1.1596346e-01   2.0501596e-01
   8.0093849e-03  -1.4775317e-03  -1.7296439e-02   2.1496606e-02  -7.0152724e-03  -2.3188484e-02   1.3633622e-02   1.4958583e-02   3.8420073e-02  -1.2058203e-01   1.6897361e-02   8.0042106e-02  -1.7907091e-02   3.4642388e-02   9.5677905e-03  -1.1846849e-01  -1.4762559e-01  -4.9116390e-02   1.7574184e-01  -6.4239690e-02   1.6855130e-02  -2.1131524e-02  -1.2272348e-01   2.7943330e-02   2.0616680e-01   6.0183251e-02
   1.0049434e-02  -2.3823431e-02   1.2812589e-02   3.4460150e-03  -2.3498613e-02   1.5581078e-02   1.3685966e-02   7.2210837e-03  -8.1287647e-02   9.0981492e-02  -1.1397128e-01   8.5443777e-02   3.2359510e-02  -7.5689968e-02  -3.1952010e-02   8.4305725e-02  -1.1416478e-01  -1.4865961e-02  -4.1367603e-02  -2.0764315e-01   2.0273769e-02  -1.5379624e-01   1.3698518e-01   1.2605964e-01  -1.3769463e-02   1.0508506e-01
  -8.0844160e-03   8.1468140e-03  -3.5181923e-03  -1.4211288e-03   1.1263032e-03   3.4027597e-03   3.0440751e-03   3.7946245e-02   2.1632444e-02   3.2110060e-04   5.0346690e-02  -2.6397077e-02   2.2577357e-02   3.9681394e-02   4.3082510e-02  -1.2277848e-02   9.2473280e-02  -4.4854562e-02  -2.9595628e-02  -9.4842931e-02   4.3606424e-02  -2.5604371e-01   2.3948390e-02  -1.1837384e-01  -2.6266217e-02   1.3580540e-01
  -2.8945325e-03   1.9532007e-02   2.7971453e-02   2.2933398e-03  -1.3874939e-02  -7.4892286e-02  -6.2253870e-02  -5.3075742e-02  -2.2974245e-02   2.1614829e-02   1.4167664e-02   1.0695946e-01   4.1861533e-02   5.3781913e-02  -1.4123704e-01  -2.8902160e-01  -1.4131694e-01   8.7316178e-02   2.1170057e-02  -8.5801887e-02   1.5361043e-01  -3.5217484e-01   1.8185088e-01   1.3664227e-01   2.1068629e-01  -5.9451744e-02
  -4.8951540e-03   1.6330251e-02   3.3384835e-02  -1.3152760e-02   5.7596072e-03  -6.1016200e-02  -7.3437379e-02  -3.5847900e-02  -7.6828183e-02   1.3047209e-01   4.8894301e-02  -2.4023291e-03   2.2768521e-02  -1.8271530e-01  -8.6879160e-02  -1.7073693e-01  -6.9382227e-02   2.8976314e-01  -7.2383256e-02  -2.4083522e-02   4.4705801e-02  -1.6664506e-01   2.2669090e-01   1.1058466e-01   2.7279997e-02  -1.9010797e-01
   2.3633727e-04   1.6247090e-02   1.8787921e-02   9.8530165e-03  -2.0080896e-02  -1.3908312e-02   3.0058132e-02  -6.5758028e-02   2.6369767e-02  -3.5064199e-02   2.5028009e-02   3.5933785e-03   1.5072348e-02   8.9112248e-02   4.1932054e-02   5.9461885e-02   4.8313430e-02  -2.6352459e-02   4.9995213e-02   5.8619736e-02   2.0633404e-02   7.9597778e-02  -2.1026682e-02  -8.9067167e-02   1.0458491e-01  -4.0025016e-02
   5.7865430e-03   1.5479906e-03  -8.3780498e-04  -1.4712172e-03  -2.0156310e-03   1.9480682e-02  -3.0131671e-03   5.0275280e-02   3.3152135e-02   3.2125835e-03  -1.8283467e-02   1.0424150e-02   1.0850720e-02  -6.8146437e-02   1.3037067e-02  -1.1932516e-01  -5.3460076e-02   2.6967122e-01   7.6881759e-03  -5.6873643e-02   7.9648598e-03  -8.3070629e-02   6.8800777e-02   5.0017512e-04   9.5854260e-02  -1.4953126e-01
  -6.8244481e-03   2.8276958e-03  -7.8695706e-03  -4.3788804e-03   9.0945145e-03  -5.3784479e-03   1.0474659e-05  -4.6982285e-02  -2.8733426e-02   4.1060333e-02   8.0591573e-02  -7.3789816e-02  -1.0605627e-01   2.1717745e-03   1.7839491e-02   9.3679878e-02   6.7089646e-02  -1.5093615e-01   7.6275264e-04   4.9245716e-02  -1.3024724e-01   7.7989077e-03  -1.0841905e-03   6.7607779e-02  -1.3288700e-01  -1.4435013e-01
  -1.0864055e-03  -7.7186319e-03   6.5902704e-03   1.0251836e-02  -1.4558384e-02   1.3020699e-02   4.2169791e-02   1.2330239e-02  -5.5526191e-02   6.0987894e-02   4.9591808e-03   8.4941638e-02  -3.7122431e-02  -1.3089324e-01   1.5435419e-01   7.0485431e-02  -2.9482663e-02   5.1299215e-02   4.4667454e-02  -1.0697167e-01   8.9352067e-02   8.8525705e-02   1.6504152e-01  -2.4291747e-01  -3.5406761e-02  -1.6921687e-02
  -1.2220569e-03   1.2132754e-02  -1.1519567e-02   8.9245469e-03   1.5361355e-02  -1.6761931e-02   2.9272608e-02  -4.4230812e-02   3.4937802e-02   1.9889119e-02   9.0560044e-02  -8.4312671e-02  -3.2035841e-02  -1.1719201e-01  -4.0951901e-02   1.6998677e-02   3.9527646e-02   7.4777352e-02  -6.2337826e-03   2.5801511e-03  -6.5556762e-02   1.7477124e-01  -2.4726191e-01  -2.3227618e-01  -5.6229628e-02   1.8106945e-01
   8.0520473e-03  -2.7778475e-03  -1.7298406e-02   2.5961388e-02  -8.7012748e-03  -2.2417379e-02   1.6550758e-02   7.5050704e-03   4.5724224e-02  -1.3874381e-01   3.3354051e-02   5.4986168e-02  -2.9838772e-02   4.2684563e-02   2.8404737e-02  -1.0919300e-01  -1.9809423e-01  -6.1432546e-02   2.1698427e-01  -8.0470156e-02   8.1145929e-02  -4.8920289e-03  -1.6098055e-01   2.2318981e-03   2.3012154e-01   8.9070104e-02
   9.6411550e-03  -2.2992667e-02   1.0950625e-02   2.6628923e-03  -1.8891120e-02   1.3826947e-02   1.2849287e-02   1.0086853e-02  -7.7282512e-02   7.9014546e-02  -1.2121331e-01   1.0177313e-01   2.3405986e-02  -7.8388091e-02  -6.0260300e-02   1.0191453e-01  -5.9929518e-02  -7.1789755e-02  -9.2533033e-02  -2.2208067e-01  -2.2360477e-03  -1.8318818e-01   1.0896125e-01   1.1945020e-01  -2.7391231e-02   2.0390453e-01
  -8.4144501e-03   1.0025077e-02  -1.0145253e-03  -6.2269718e-03   1.2496588e-03  -1.4822399e-03   1.0316304e-03   4.2705618e-02   1.5674665e-02   1.0271003e-02   5.6647926e-02  -1.5832653e-02   2.5147235e-02   5.5089289e-02   4.6596926e-02  -2.9915366e-03   1.0279737e-01  -3.6784356e-02  -3.3912063e-02  -1.1403819e-01   3.9137499e-02  -2.7324403e-01   4.8501584e-02  -9.7176407e-02   4.5943467e-03   1.1244342e-01
  -2.9857634e-03   1.9610597e-02   2.8518308e-02   4.6157887e-03  -1.4957771e-02  -7.1740216e-02  -5.8568364e-02  -5.6350727e-02  -1.5621162e-02   1.0584656e-02   1.1703771e-02   1.0533122e-01   5.9349795e-02   6.8563774e-02  -1.4916817e-01  -2.8240975e-01  -1.2220492e-01   8.0737727e-02   4.6494881e-02  -7.2437657e-02   1.8078387e-01  -3.4421071e-01   1.0186287e-01   1.0187049e-01   1.9800515e-01  -2.1249491e-02
  -4.5544559e-03   1.5151431e-02   3.2572021e-02  -9.7986505e-03   2.4197284e-03  -5.4919538e-02  -6.8416920e-02  -3.5747396e-02  -7.5459613e-02   1.3744825e-01   4.1355376e-02   1.2850284e-02   4.4747394e-02  -1.6894470e-01  -6.7266937e-02  -1.7802610e-01  -6.4360226e-02   3.0251860e-01  -6.5029656e-02  -4.4844292e-04   1.8372306e-02  -1.4445138e-01   2.3109625e-01   7.4272444e-02   8.5887484e-03  -1.9508763e-01
   4.8011330e-04   1.4994925e-02   1.8322404e-02   9.8415035e-03  -2.1053331e-02  -1.1506270e-02   2.5022819e-02  -5.9816209e-02   2.0281728e-02  -3.8442533e-02   9.1435226e-03  -5.6852256e-03   1.1481036e-02   6.6932022e-02   2.9036081e-02   6.7454187e-02   4.9632913e-02  -2.0162527e-02   3.9920544e-02   6.0041600e-02   2.0950609e-02   7.9973771e-02  -4.8355705e-02  -7.5792889e-02   7.1337887e-02  -2.0181210e-02
   5.9683918e-03  -2.0680144e-05  -3.5655327e-03   1.5493094e-03  -5.5840296e-03   2.4731728e-02  -3.7698931e-03   4.5764604e-02   3.3205832e-02  -2.4577677e-03  -1.9722459e-02   5.6440581e-03   2.0775928e-02  -7.7649626e-02   6.6753677e-03  -1.0144506e-01  -6.6114695e-02   2.6787066e-01  -3.5022845e-03  -4.6843172e-02   4.2377412e-03  -6.2852004e-02   9.0136394e-02   2.8878640e-03   7.2850814e-02  -1.2460128e-01
  -6.4896114e-03   9.2607521e-04  -6.9950750e-03  -5.6862070e-03   9.4289179e-03  -5.3592882e-03  -3.1072585e-04  -4.4095908e-02  -2.5678368e-02   3.7331943e-02   9.0646048e-02  -5.3048376e-02  -9.7502239e-02   1.0529021e-02   1.8692695e-02   9.8170634e-02   4.8103593e-02  -1.2968766e-01  -9.9537556e-03   5.1800152e-02  -1.2733340e-01   2.3242426e-02   1.7361198e-02   5.2071925e-02  -5.7098028e-02  -1.3632089e-01
  -1.4845838e-03  -4.4948261e-03   6.8258723e-03   9.8199865e-03  -1.5347477e-02   1.2686922e-02   4.6749383e-02   6.7270739e-03  -5.6598699e-02   5.0473621e-02   1.6783592e-02   6.9549816e-02  -3.4623943e-02  -1.3690091e-01   1.9127575e-01   6.7846368e-02  -2.5483400e-02   7.4073806e-02   2.9850468e-02  -1.0723217e-01   1.3609627e-01   8.2993118e-02   1.9698603e-01  -2.1514328e-01  -8.4621416e-02   4.4189508e-02
  -9.7638281e-04   9.5700324e-03  -1.2492140e-02   1.0792898e-02   1.1985878e-02  -1.5115354e-02   2.9793292e-02  -3.1417998e-02   2.1912069e-02   1.9346074e-02   9.4728882e-02  -8.7750353e-02  -5.3158862e-02  -1.2365725e-01  -9.1064887e-03   4.1093441e-02  -5.5684584e-03   8.6837121e-02   9.6323774e-03  -2.3273117e-02  -8.3457920e-02   1.8274103e-01  -2.6025244e-01  -2.4494870e-01   1.2846482e-02   1.3663384e-01
   7.9398870e-03  -4.3445653e-03  -1.7360276e-02   3.0135630e-02  -9.3610391e-03  -2.2006180e-02   1.9687618e-02  -1.5858715e-03   5.2034053e-02  -1.5406931e-01   5.0558914e-02   3.2034641e-02  -3.8748717e-02   5.5632176e-02   3.8976376e-02  -9.7733446e-02  -2.4091832e-01  -7.2212652e-02   2.5860628e-01  -8.7113856e-02   1.4180286e-01   1.0477892e-02  -1.9282773e-01  -2.2164189e-02   2.6199025e-01   1.0807306e-01
   9.1608999e-03  -2.1842671e-02   8.4006454e-03   1.5864743e-03  -1.4585613e-02   1.2121910e-02   1.1015645e-02   1.4018709e-02  -7.3531904e-02   6.6286167e-02  -1.2782150e-01   1.2102023e-01   1.2097117e-02  -7.6093896e-02  -8.8661321e-02   1.1980237e-01   4.5038365e-04  -1.3140017e-01  -1.4096576e-01  -2.3361949e-01  -2.2670982e-02  -2.0652405e-01   8.8607684e-02   1.1176719e-01  -1.9030421e-02   2.8700573e-01
  -8.6000612e-03   1.1564772e-02   8.3769555e-04  -9.6527734e-03   9.0857085e-04  -5.4618416e-03  -1.0158739e-03   4.5293809e-02   1.2481155e-02   2.1216437e-02   6.5198948e-02  -4.0949403e-03   2.6154323e-02   7.1818129e-02   4.5357928e-02   2.9308319e-03   1.1479694e-01  -3.2622493e-02  -4.9952671e-02  -1.2621470e-01   3.0821930e-02  -2.8996154e-01   7.6633860e-02  -7.9166351e-02   3.8018818e-02   9.3157228e-02
  -2.9185553e-03   2.0233352e-02   2.9031273e-02   6.2155175e-03  -1.6401772e-02  -6.8418534e-02  -5.4697730e-02  -5.8296897e-02  -1.1970328e-02  -8.3533446e-04   8.8928125e-03   9.9474025e-02   7.6619196e-02   7.3481493e-02  -1.5406007e-01  -2.6589074e-01  -1.0981049e-01   8.0102230e-02   7.7339225e-02  -6.2176637e-02   2.0032044e-01  -3.2875888e-01   2.6681128e-02   7.5114470e-02   1.9326536e-01   1.1320010e-02
  -4.2121413e-03   1.3625946e-02   3.1178676e-02  -5.8774297e-03  -8.9443891e-04  -4.9449256e-02  -6.3416538e-02  -3.5633296e-02  -7.3146578e-02   1.4311642e-01   3.2895919e-02   3.0815326e-02   6.7973682e-02  -1.4925231e-01  -4.8804944e-02  -1.8525376e-01  -5.8383390e-02   3.1177529e-01  -5.8430397e-02   3.1327007e-02  -4.6167293e-03  -1.1797808e-01   2.2632846e-01   3.1393673e-02   1.6780638e-04  -2.0059533e-01
   1.0310260e-03   1.4551409e-02   1.8952117e-02   8.1099075e-03  -2.2985518e-02  -8.8296440e-03   1.7431110e-02  -5.0405972e-02   1.0643366e-02  -4.8459218e-02  -1.5192426e-02  -2.3151256e-02   8.4317007e-03   3.4519437e-02   2.0613639e-02   7.2993431e-02   4.6391747e-02  -1.5506049e-02   3.6036251e-02   4.9249767e-02   1.7999419e-02   7.1863440e-02  -8.1663986e-02  -4.1446072e-02   2.6182805e-03   5.0232085e-03
   6.8476384e-03  -2.4485208e-03  -5.7133364e-03   6.6718853e-03  -1.1244585e-02   2.9708414e-02  -7.0457944e-03   4.4560763e-02   3.1043624e-02  -1.0811710e-02  -3.4232588e-02   6.7102237e-03   3.4791852e-02  -8.3393638e-02  -6.0757763e-03  -9.4864769e-02  -7.0726004e-02   2.5279929e-01  -1.8456551e-02  -3.6991320e-02   1.6389307e-02  -4.1429206e-02   8.9239125e-02  -8.9634378e-03   2.0101746e-02  -7.9131457e-02
  -5.7160694e-03  -1.8691275e-03  -2.8253763e-03  -7.6299007e-03   9.7453337e-03  -9.0975728e-03  -9.6501157e-04  -3.4614084e-02  -2.3561839e-02   2.5776795e-02   8.9866946e-02  -1.8435905e-02  -6.7439633e-02   3.0316677e-02   2.6260442e-02   9.6324386e-02   2.4570286e-02  -1.1535480e-01  -7.0911051e-03   4.0859256e-02  -9.7446486e-02   4.6191624e-02   3.1385449e-02   2.6764907e-02   4.0434551e-02  -9.7094663e-02
  -2.1180629e-03  -9.9099240e-04   6.6218834e-03   7.1566784e-03  -1.4794968e-02   1.1754153e-02   4.7150257e-02  -1.2728042e-03  -5.4890447e-02   4.0707133e-02   2.2714156e-02   4.9438412e-02  -1.9001698e-02  -1.3202711e-01   2.0469276e-01   5.9650964e-02  -1.2958343e-02   9.0466993e-02   9.7899885e-03  -9.5727961e-02   1.6347438e-01   7.3313461e-02   2.1722491e-01  -1.6654802e-01  -1.4034293e-01   1.0216640e-01
  -6.5462518e-04   6.3689008e-03  -1.2797322e-02   1.1722294e-02   8.5716282e-03  -1.2932548e-02   2.6591831e-02  -1.4666730e-02   1.1220048e-02   1.0225322e-02   9.2319963e-02  -8.6351342e-02  -7.9274464e-02  -1.1549033e-01   2.1587961e-02   5.3563393e-02  -4.8238625e-02   9.0953668e-02   2.7931516e-02  -3.8769524e-02  -1.0116203e-01   1.7129479e-01  -2.6611095e-01  -2.4283592e-01   8.6719842e-02   7.1955384e-02
   7.7293043e-03  -6.0822650e-03  -1.7381749e-02   3.3938617e-02  -9.1766096e-03  -2.1910060e-02   2.2614696e-02  -1.1762844e-02   5.7489663e-02  -1.6448589e-01   6.6966906e-02   1.3331454e-02  -4.3534057e-02   7.3258162e-02   3.9071152e-02  -8.4803270e-02  -2.7323896e-01  -8.1458916e-02   2.9865280e-01  -8.3045721e-02   1.9589724e-01   2.5664394e-02  -2.1887469e-01  -4.6559366e-02   3.0220177e-01   1.1544312e-01
   8.6352409e-03  -2.0375555e-02   5.2800529e-03   1.5407578e-04  -1.0706587e-02   1.0727851e-02   8.2173489e-03   1.8603478e-02  -6.9721346e-02   5.3578332e-02  -1.3372576e-01   1.4231077e-01  -1.6308956e-03  -6.8228964e-02  -1.1721335e-01   1.3526891e-01   6.4071764e-02  -1.9027426e-01  -1.8506894e-01  -2.4076678e-01  -4.1597484e-02  -2.2459287e-01   7.6994701e-02   1.0387347e-01   9.7328328e-03   3.4836752e-01
  -8.5684439e-03   1.2596247e-02   2.0243782e-03  -1.1198623e-02  -6.9856961e-05  -8.6025091e-03  -3.2508799e-03   4.5338165e-02   1.1353524e-02   3.3104069e-02   7.3681472e-02   8.9844655e-03   2.4746514e-02   8.8251668e-02   3.7718976e-02   5.7209752e-03   1.2890707e-01  -3.5476208e-02  -7.6080287e-02  -1.2893976e-01   1.8499106e-02  -3.0224251e-01   1.0155309e-01  -6.8002704e-02   6.8127092e-02   8.0150151e-02
  -2.7211376e-03   2.1335381e-02   2.9385932e-02   7.4172452e-03  -1.8433341e-02  -6.5192743e-02  -5.0456063e-02  -6.0030325e-02  -1.1321415e-02  -1.1009907e-02   7.2954046e-03   8.9420884e-02   9.2848865e-02   6.9357021e-02  -1.5514637e-01  -2.4039699e-01  -1.0513946e-01   8.2756626e-02   1.1202510e-01  -5.3565556e-02   2.1169375e-01  -3.0523014e-01  -3.6994881e-02   5.5797511e-02   1.9294059e-01   3.4773924e-02
  -3.8829809e-03   1.1928242e-02   2.9211637e-02  -1.8486160e-03  -4.0075703e-03  -4.4846265e-02  -5.8797198e-02  -3.5445937e-02  -7.0026512e-02   1.4657956e-01   2.3746143e-02   4.9880595e-02   9.0574346e-02  -1.2580928e-01  -3.4220018e-02  -1.9227244e-01  -5.2288512e-02   3.1731926e-01  -5.2492050e-02   6.7413804e-02  -2.5269954e-02  -9.2010139e-02   2.1169889e-01  -1.3082463e-02   1.0196103e-03  -2.0407026e-01
   1.7456589e-03   1.4842995e-02   2.0679252e-02   4.7840343e-03  -2.5440514e-02  -6.6975298e-03   8.4507918e-03  -3.8419451e-02  -1.2447618e-03  -6.3163105e-02  -4.4084700e-02  -4.7238808e-02   8.2147796e-03  -4.7554677e-03   2.0763791e-02   7.4955399e-02   3.7661087e-02  -1.2959428e-02   4.0832470e-02   2.7644010e-02   1.3057279e-02   5.8189093e-02  -1.1263997e-01   8.0490992e-03  -9.5073237e-02   3.0778320e-02
   8.3288973e-03  -5.2735592e-03  -6.8116976e-03   1.2989946e-02  -1.8258174e-02   3.3382371e-02  -1.2466217e-02   4.7600496e-02   2.7011410e-02  -2.1142115e-02  -6.0772025e-02   1.4215964e-02   5.2850459e-02  -8.2193289e-02  -2.3878321e-02  -1.0393717e-01  -6.4814566e-02   2.2583618e-01  -3.3984466e-02  -3.0931254e-02   4.4283464e-02  -2.5558968e-02   6.4451050e-02  -3.5804779e-02  -5.5545844e-02  -1.6551884e-02
  -4.6037615e-03  -5.0972559e-03   4.3215139e-03  -9.9977819e-03   9.8926452e-03  -1.6225571e-02  -1.9007112e-03  -1.9848341e-02  -2.3078151e-02   7.7113447e-03   7.7946584e-02   2.4478592e-02  -2.0827156e-02   5.8988515e-02   4.1061301e-02   8.7380719e-02   1.0531388e-04  -1.1106630e-01   9.5019208e-03   1.5542106e-02  -4.3530511e-02   7.1953917e-02   3.8086203e-02  -4.8056504e-03   1.4276154e-01  -3.0702475e-02
  -2.9146417e-03   2.7123873e-03   6.0722807e-03   2.3280394e-03  -1.2839149e-02   1.0638429e-02   4.2894280e-02  -1.0923998e-02  -5.0686989e-02   3.4463526e-02   2.0512810e-02   2.7111952e-02   9.9882109e-03  -1.1495530e-01   1.8949676e-01   4.5491915e-02   8.4091279e-03   9.8634607e-02  -1.3986946e-02  -7.2275266e-02   1.6633440e-01   6.0196535e-02   2.2506736e-01  -9.7429779e-02  -1.9820275e-01   1.4750545e-01
  -2.6686476e-04   2.6209028e-03  -1.2325332e-02   1.1526561e-02   5.5948250e-03  -1.0287302e-02   1.9457678e-02   5.4053116e-03   3.8303730e-03  -6.1117878e-03   8.1954838e-02  -8.0078104e-02  -1.0885849e-01  -9.3524803e-02   4.7517409e-02   5.2190283e-02  -8.6136833e-02   8.5610859e-02   4.7342794e-02  -4.3093288e-02  -1.2221420e-01   1.3997416e-01  -2.6533461e-01  -2.2618414e-01   1.6049031e-01  -1.1832858e-02
   7.4862494e-03  -7.7652492e-03  -1.7193731e-02   3.7183824e-02  -8.4128150e-03  -2.1921094e-02   2.4882572e-02  -2.2225914e-02   6.2199630e-02  -1.6834305e-01   8.0967116e-02   1.2216026e-04  -4.3650156e-02   9.4243719e-02   2.7865193e-02  -7.0967806e-02  -2.9292628e-01  -8.8647142e-02   3.3392421e-01  -6.9048421e-02   2.4066785e-01   4.0065580e-02  -2.3923480e-01  -7.0166846e-02   3.4884252e-01   1.1014622e-01
   8.0774001e-03  -1.8542001e-02   1.7968261e-03  -1.7237803e-03  -7.3485191e-03   9.8783313e-03   4.6771127e-03   2.3248234e-02  -6.5428892e-02   4.1344493e-02  -1.3863223e-01   1.6394310e-01  -1.7492487e-02  -5.4805374e-02  -1.4539698e-01   1.4565676e-01   1.2749554e-01  -2.4447823e-01  -2.2334942e-01  -2.4206213e-01  -5.9662668e-02  -2.3866030e-01   7.3893118e-02   9.6750252e-02   5.4997488e-02   3.8378935e-01
  -8.2681347e-03   1.3018997e-02   2.6805718e-03  -1.0640210e-02  -1.7904655e-03  -1.1123729e-02  -5.8465332e-03   4.2612815e-02   1.1017940e-02   4.5272348e-02   7.9508696e-02   2.2863767e-02   2.0485127e-02   1.0263201e-01   2.2944787e-02   6.1862219e-03   1.4477366e-01  -4.8116999e-02  -1.0840633e-01  -1.2122270e-01   2.1809907e-03  -3.0622292e-01   1.1691996e-01  -6.5409439e-02   8.8885650e-02   7.5004317e-02
  -2.4019986e-03   2.2800970e-02   2.9496899e-02   8.7550730e-03  -2.1303324e-02  -6.2528795e-02  -4.5563361e-02  -6.2906841e-02  -1.2558488e-02  -1.7718602e-02   8.3420538e-03   7.6727427e-02   1.0669648e-01   5.8507008e-02  -1.5277680e-01  -2.0786701e-01  -1.0695552e-01   8.4759076e-02   1.4754874e-01  -4.4004849e-02   2.1483689e-01  -2.7335384e-01  -8.5369543e-02   3.9976540e-02   1.9326142e-01   4.6936737e-02
  -3.6041422e-03   1.0220834e-02   2.6696221e-02   1.6676589e-03  -6.6915247e-03  -4.1289588e-02  -5.4996634e-02  -3.4928483e-02  -6.6385931e-02   1.4686938e-01   1.4314383e-02   6.7313445e-02   1.1044252e-01  -1.0202823e-01  -2.5566126e-02  -1.9876216e-01  -4.8415251e-02   3.1901175e-01  -4.6159356e-02   1.0191242e-01  -4.4843836e-02  -7.2261625e-02   1.8829323e-01  -5.2641581e-02   8.0325324e-03  -2.0280440e-01
   2.4432838e-03   1.5687601e-02   2.3230435e-02   4.3182425e-04  -2.7817693e-02  -5.8410398e-03  -1.0555492e-04  -2.5748694e-02  -1.3041673e-02  -7.8819538e-02  -7.1542074e-02  -7.3345857e-02   1.2169748e-02  -4.4488032e-02   3.1380475e-02   7.2938802e-02   2.5594353e-02  -1.3340939e-02   5.3454000e-02   1.2589330e-04   7.6101027e-03   4.3147178e-02  -1.3376993e-01   6.1554508e-02  -2.0599619e-01   5.2111189e-02
   1.0088295e-02  -7.8575033e-03  -6.7644527e-03   1.9019854e-02  -2.5260889e-02   3.5164993e-02  -1.9021840e-02   5.4799570e-02   2.2607580e-02  -3.2056303e-02  -9.3996880e-02   2.6836306e-02   7.3324906e-02  -7.2243704e-02  -4.4440258e-02  -1.2949927e-01  -4.8778806e-02   1.9200359e-01  -4.8586686e-02  -3.1885010e-02   8.2992298e-02  -2.3549013e-02   2.1142922e-02  -7.3479603e-02  -1.3917613e-01   5.5657549e-02
  -3.3169996e-03  -8.1582909e-03   1.3218859e-02  -1.2310650e-02   9.6815398e-03  -2.5355881e-02  -2.9435875e-03  -2.9280298e-03  -2.4572110e-02  -1.4217240e-02   5.6657268e-02   6.6999311e-02   3.3134163e-02   9.0773041e-02   6.0593948e-02   7.2906669e-02  -2.1294063e-02  -1.1753771e-01   3.6636562e-02  -2.0248008e-02   2.4097566e-02   9.5705689e-02   3.5708193e-02  -3.6716169e-02   2.2889288e-01   5.2394881e-02
  -3.7886203e-03   6.5318763e-03   5.2512540e-03  -4.3253474e-03  -9.5833150e-03   9.6633088e-03   3.4214273e-02  -2.1600007e-02  -4.4406894e-02   3.2928681e-02   9.3750543e-03   5.0917002e-03   5.1024091e-02  -8.4359832e-02   1.4358638e-01   2.5361853e-02   3.8566891e-02   9.7510542e-02  -4.0766035e-02  -3.7573840e-02   1.4230435e-01   4.2982144e-02   2.2091754e-01  -9.2408421e-03  -2.5296615e-01   1.7205048e-01
   1.7370674e-04  -1.4931415e-03  -1.1031288e-02   1.0165063e-02   3.4422016e-03  -7.3889702e-03   8.8226396e-03   2.7430715e-02   3.4071773e-04  -2.8051317e-02   6.3525599e-02  -6.8880414e-02  -1.3925052e-01  -5.9046518e-02   6.5404214e-02   3.6293960e-02  -1.1585721e-01   6.9741668e-02   6.6100786e-02  -3.6108444e-02  -1.4922457e-01   8.9481198e-02  -2.5839312e-01  -1.9582385e-01   2.2937201e-01  -1.1132462e-01
   7.2726065e-03  -9.0360356e-03  -1.6561123e-02   3.9556929e-02  -7.4136888e-03  -2.1775006e-02   2.6132365e-02  -3.2048933e-02   6.6277973e-02  -1.6490156e-01   9.1191655e-02  -7.4902286e-03  -3.8952611e-02   1.1622914e-01   6.3953645e-03  -5.6546394e-02  -2.9854085e-01  -9.2784886e-02   3.6036069e-01  -4.7660950e-02   2.7361310e-01   5.1579780e-02  -2.5315595e-01  -8.9939153e-02   3.9725571e-01   9.2199140e-02
   7.4866584e-03  -1.6281447e-02  -1.7437074e-03  -4.1658985e-03  -4.5709073e-03   9.7407009e-03   7.3576253e-04   2.7294902e-02  -6.0288665e-02   2.9865446e-02  -1.4209988e-01   1.8339635e-01  -3.4652881e-02  -3.6599952e-02  -1.7184818e-01   1.4858301e-01   1.8632513e-01  -2.8928606e-01  -2.5397453e-01  -2.3621541e-01  -7.7396493e-02  -2.4955526e-01   7.7936139e-02   9.1222214e-02   1.1085511e-01   3.9096184e-01
  -7.7010246e-03   1.2797730e-02   3.0697138e-03  -8.1077747e-03  -4.2006410e-03  -1.3378240e-02  -8.9447758e-03   3.7002675e-02   9.7736992e-03   5.6467851e-02   8.0385586e-02   3.6082265e-02   1.3395260e-02   1.1314788e-01   1.7000638e-03   5.9553727e-03   1.6090505e-01  -7.2671425e-02  -1.4092496e-01  -1.0369107e-01  -1.7901662e-02  -2.9833911e-01   1.1818182e-01  -7.0382457e-02   9.4990920e-02   7.8204128e-02
  -1.9432295e-03   2.4459101e-02   2.9358040e-02   1.0850050e-02  -2.5249999e-02  -6.1029070e-02  -3.9811000e-02  -6.8240255e-02  -1.4419752e-02  -1.8193152e-02   1.2948248e-02   6.4153921e-02   1.1625015e-01   4.4184983e-02  -1.4834767e-01  -1.7117675e-01  -1.1261161e-01   8.1942149e-02   1.7986050e-01  -3.0748741e-02   2.0970143e-01  -2.3321536e-01  -1.1762198e-01   2.0863451e-02   1.9041229e-01   4.7270485e-02
  -3.4282420e-03   8.6646044e-03   2.3689334e-02   4.0028086e-03  -8.7252611e-03  -3.8977199e-02  -5.2355235e-02  -3.3814958e-02  -6.2538165e-02   1.4285111e-01   5.3613924e-03   7.9708402e-02   1.2553572e-01  -8.1861560e-02  -2.4148587e-02  -2.0432871e-01  -4.9782674e-02   3.1597153e-01  -3.7341238e-02   1.2766798e-01  -6.4340050e-02  -6.5204256e-02   1.5869917e-01  -8.0057555e-02   1.6132669e-02  -1.9401226e-01
   2.9449248e-03   1.6715147e-02   2.6043421e-02  -4.0188054e-03  -2.9367792e-02  -6.6383691e-03  -6.3869601e-03  -1.4813286e-02  -2.2036944e-02  -8.9535362e-02  -9.0798671e-02  -9.4487579e-02   1.9805128e-02  -7.6419573e-02   5.1461830e-02   6.7354079e-02   1.3909393e-02  -1.6115797e-02   6.9020770e-02  -2.6108157e-02   2.4565527e-03   3.2721891e-02  -1.3908759e-01   1.0408352e-01  -3.0666935e-01   6.3533326e-02
   1.1593351e-02  -9.5112910e-03  -5.9024166e-03   2.2921311e-02  -3.0349650e-02   3.4982760e-02  -2.5151101e-02   6.4972684e-02   2.0224566e-02  -4.1322742e-02  -1.2468506e-01   4.1415329e-02   9.2641341e-02  -5.3833095e-02  -6.4458010e-02  -1.6780851e-01  -2.6278437e-02   1.5966131e-01  -6.2702595e-02  -4.1920912e-02   1.2337827e-01  -4.3181662e-02  -2.8789779e-02  -1.1306398e-01  -2.0906059e-01   1.2580190e-01
  -2.0669847e-03  -1.0394293e-02   2.1814334e-02  -1.3854248e-02   8.9405191e-03  -3.4234829e-02  -3.8322678e-03   1.1588379e-02  -2.7917291e-02  -3.5967898e-02   2.9580948e-02   9.8469038e-02   8.2134771e-02   1.1699842e-01   7.9260764e-02   5.6675225e-02  -3.5965525e-02  -1.3285088e-01   6.8546108e-02  -5.7407619e-02   8.8695757e-02   1.1379071e-01   2.3821948e-02  -6.1303129e-02   2.7664327e-01   1.3526257e-01
  -4.6447693e-03   1.0253788e-02   4.1688150e-03  -1.2234731e-02  -5.2623643e-03   8.9346913e-03   2.1831126e-02  -3.2497192e-02  -3.6753672e-02   3.6050546e-02  -1.0167974e-02  -1.4037077e-02   1.0106455e-01  -3.9966835e-02   6.8160141e-02  -2.5207157e-04   7.5994425e-02   8.7753009e-02  -6.9502746e-02   6.7492223e-03   9.1541484e-02   2.1305794e-02   2.0591025e-01   9.3724045e-02  -2.9838001e-01   1.7011520e-01
