  -3.0547080e-02  -8.1067215e-03   3.3561428e-02  -1.1253946e-01  -2.1862646e-01   9.8506579e-02  -4.8977761e-02  -1.8263411e-01   2.8190599e-01  -3.8588927e-02  -5.4649367e-01   1.1492574e-01  -3.3930644e-01   7.3376179e-01  -1.3494649e-02  -2.0666977e-01   2.0405220e-01  -8.5636460e-01  -4.9320413e-01   1.2085512e+00   2.7326949e-01   4.2293613e-01  -9.7258546e-01   7.7454190e-02
   1.1245852e-02   3.8973140e-02  -9.7083679e-02   1.5319363e-01   8.4880150e-02  -2.2375227e-01  -1.1976868e-01   6.7519542e-02  -3.4535564e-01  -6.9356473e-02  -4.2431666e-01   2.6525399e-02   1.9818129e-01   9.8788111e-02  -4.7869372e-01   4.6748975e-01   5.4877351e-01   1.7341517e+00   2.6241529e-01   3.8550619e-01  -9.2299319e-02   1.7185306e+00   7.0058732e-01  -2.1513721e-02
   3.6506165e-02   3.4189493e-04   5.8235165e-02  -6.8460523e-02  -3.4343026e-02   2.6107524e-01  -2.2110164e-01   4.5146849e-03  -6.4016017e-02  -3.3645637e-01   1.9797213e-01  -1.3876562e-01   8.6899315e-02  -1.3784922e-01  -5.6210586e-01  -4.2849162e-03  -7.2992638e-01   8.7336963e-02  -9.7234364e-02   1.2806545e+00   8.2346054e-02  -1.1461372e+00  -1.2772862e+00  -2.9918324e-01
  -2.2993959e-02   3.8848108e-02  -1.0944235e-02   1.0402587e-01   1.9216048e-01   9.8406223e-02   1.9803178e-01  -2.8056774e-01   1.5651968e-01  -2.7174307e-01   7.0373483e-03   5.0617678e-01  -8.2655286e-01  -3.9020993e-01   6.4552822e-02   8.8066503e-01   4.6577405e-01  -1.0547442e+00  -6.0402798e-02  -2.0110626e+00   8.4093113e-02  -3.5122752e-02  -1.4341801e+00  -9.1714619e-01
   2.6866151e-02   2.8820632e-02  -7.9465854e-02   4.5951911e-02   8.3232585e-02   1.0025448e-01  -2.6622745e-01  -1.0321661e-01  -4.3745464e-01   4.2760012e-01  -2.8753941e-01  -3.6678576e-01  -5.0978603e-01   5.5712106e-01   2.6977592e-01  -7.6637587e-02   1.2730788e-01   3.7111304e-01   3.8942259e-01  -5.3186186e-01  -4.0892083e-01  -2.3509559e-01  -9.8800904e-01   1.2977688e+00
  -1.9316005e-02  -5.4860609e-02  -9.9716012e-02  -6.1832228e-02   2.7598732e-02   6.3445477e-02   1.2917612e-01  -7.6436098e-02   1.4092042e-01   2.1790440e-01   5.2256752e-01  -3.3673240e-01   2.3960407e-01   1.3657747e-01   2.3817020e-01  -5.6661789e-01  -2.2880480e-01  -4.2060697e-02   3.9269434e-01   7.2592145e-01  -1.0679313e-01   2.9373559e-01   7.5510986e-01  -1.3242555e-01
   1.3172877e-01  -3.7021538e-02   1.8798816e-01   1.6273367e-01  -1.7708369e-01  -8.4642984e-02   1.3940388e-03  -2.0439585e-01  -1.6828463e-01  -4.8458144e-01  -2.5662162e-02  -4.4715275e-01   4.4607983e-01  -3.9022595e-01  -3.1068036e-01  -1.0531026e-01   4.1250631e-01   8.6142253e-02   1.0762911e+00  -6.2896289e-01   8.5365914e-01   1.1345723e-01   4.8588926e-01   2.0107410e+00
   4.1243820e-02  -5.0327827e-02  -1.9158090e-02   2.2988235e-02   2.3544842e-01  -1.1989398e-01  -3.1257723e-01   3.5978904e-01   1.0482612e-02   3.0955899e-01   3.8548452e-03   3.5379627e-01  -1.1885539e-01  -1.2695950e-01  -4.7251519e-01  -3.4604231e-01  -5.9747439e-02  -5.9183926e-02  -2.1022586e-01  -1.2515845e-01  -2.0160881e+00  -2.1440101e+00   1.3473726e-01   1.4272945e+00
   3.6230207e-02  -6.0350034e-02  -1.5711763e-01  -3.6408893e-02  -2.8009080e-01   6.5451720e-02   2.1463355e-01  -5.7628838e-02  -2.8861205e-01  -1.0031789e-01  -5.7235967e-02   5.0576971e-01  -3.2122533e-01  -4.2613857e-01  -5.9110924e-01  -6.3753362e-01  -3.5710895e-02  -5.6460444e-01  -2.1916233e-01   3.7271475e-01  -6.7315804e-01   1.4802917e+00   7.4635945e-01   6.4751665e-02
  -2.9297132e-02  -3.7263600e-02   4.0190389e-02  -2.5939983e-02   8.3972503e-02  -1.1496024e-01   4.5491986e-02  -3.4470428e-01  -4.7981010e-01  -1.2820907e-01   3.0211040e-01   5.2444743e-01  -3.1655110e-01   6.8202088e-01   5.4319040e-01  -5.9611147e-01  -6.0102416e-01  -3.0021675e-01  -1.6065329e+00  -6.1626108e-02   7.0610583e-01   1.6926714e+00  -7.5230476e-01   6.4167958e-01
  -2.7034536e-02  -4.3828876e-03   2.6338267e-02  -1.0267156e-01  -1.9659008e-01   8.1798376e-02  -3.9110147e-02  -1.5703027e-01   2.5771850e-01  -4.1491116e-02  -5.0180709e-01   1.0620943e-01  -2.9577383e-01   6.7598038e-01  -9.9865799e-03  -2.0434600e-01   2.3145998e-01  -7.1041315e-01  -4.0279374e-01   1.0375352e+00   2.1377478e-01   3.9626397e-01  -8.2413834e-01   1.2247577e-01
   7.6167787e-03   3.5178627e-02  -7.7081064e-02   1.0692976e-01   4.7423362e-02  -1.9695304e-01  -9.2455549e-02   6.9484858e-02  -2.7957596e-01  -7.3843554e-02  -3.6690325e-01   3.9254008e-02   2.0407858e-01   8.4703320e-02  -4.1811282e-01   3.4029770e-01   4.5216472e-01   1.5194332e+00   2.3333145e-01   4.5466979e-01  -7.6848209e-02   1.4734669e+00   5.6040942e-01  -1.2003205e-01
   2.3149971e-02   3.6054901e-03   4.7200546e-02  -3.5610563e-02  -2.3434428e-02   1.3947316e-01  -1.1532483e-01   1.2082164e-02  -1.4845411e-02  -2.5093287e-01   9.9284112e-02  -8.8941953e-02   5.2637599e-02  -1.2253448e-01  -4.4907645e-01   8.8209226e-02  -5.6162279e-01   7.0552184e-02  -1.2640852e-01   8.5807748e-01   1.5193659e-01  -6.0900117e-01  -7.2915779e-01  -3.3543499e-01
  -2.0686303e-02   1.8506656e-02  -7.8724320e-03   5.5853853e-02   1.1637355e-01   1.0003347e-01   1.2176935e-01  -1.9178270e-01   1.1708349e-01  -1.9228779e-01   6.4848284e-02   3.1240475e-01  -5.3893970e-01  -2.8198283e-01   7.9352511e-02   5.1206901e-01   3.4329417e-01  -7.9857116e-01   1.3066926e-01  -1.2887980e+00   8.3763622e-02  -1.4629653e-01  -9.2379296e-01  -4.6971622e-01
   1.6060114e-02   1.9178146e-02  -5.8220030e-02   1.9748245e-02   5.6958842e-02   6.8909593e-02  -1.7065438e-01  -8.6153260e-02  -2.7866139e-01   3.5731199e-01  -1.5409232e-01  -2.6766115e-01  -4.0997052e-01   3.9679793e-01   2.8140507e-01  -9.9430299e-02   8.7259225e-02   1.1919385e-01   3.8035713e-01  -5.5528275e-01  -3.2773124e-01  -2.0478957e-01  -4.9802449e-01   9.4130825e-01
  -1.0563784e-02  -1.5429286e-02  -4.8251235e-02  -1.2212037e-02   1.1580624e-02   2.8026865e-02   3.8422690e-02  -6.0370013e-02  -1.5133853e-03   1.1483526e-01   1.8102509e-01  -7.0807770e-02   2.5784325e-02   6.2310119e-02   2.1294807e-01  -1.4345160e-01   4.0640206e-02  -4.3290443e-02   2.3317931e-01  -5.6166664e-02  -2.2314526e-02   1.4550312e-01   1.6958729e-01  -1.1267730e-01
   9.5819387e-02  -3.2498796e-02   1.4238504e-01   1.4681746e-01  -1.4038049e-01  -5.0849599e-02  -3.0854905e-02  -1.4375461e-01  -6.4575289e-02  -3.1588739e-01  -6.6226202e-02  -3.6525160e-01   3.2943177e-01  -1.3284533e-01  -9.2507567e-02   1.2407830e-01   4.0432883e-01   8.9773548e-02   7.0915675e-01  -4.9176671e-01   7.6417314e-01  -3.0141708e-01  -2.8651895e-02   7.9584626e-01
   3.3597245e-02  -3.9124010e-02  -3.0525168e-02   6.6382901e-03   1.8674257e-01  -8.2010983e-02  -2.4035703e-01   3.1529636e-01   5.7700127e-02   2.5073568e-01  -6.6150182e-02   2.2762951e-01  -6.5612610e-02  -1.3885558e-01  -2.7049292e-01  -1.5546869e-01  -1.3220270e-01  -1.8284388e-02  -8.7156680e-02  -1.5847079e-01  -1.4613318e+00  -1.5017368e+00   2.6243014e-02   5.5713502e-01
   1.1270091e-02  -4.8255969e-02  -1.1260812e-01   3.8270990e-03  -1.5974650e-01   3.0882684e-02   9.6542084e-02  -2.7128519e-03  -1.2061509e-01  -4.0568668e-02  -6.5726107e-02   2.9002071e-01  -1.9293708e-01  -1.2605583e-01  -2.0700706e-01  -3.0209783e-01  -7.4235057e-02  -3.6224887e-01  -2.4976092e-01   2.3083344e-01  -2.9203951e-01   5.9103546e-01   1.1158566e-01  -5.4368458e-01
  -2.8947881e-02  -2.2008096e-02   1.9724740e-02  -3.5598619e-02   3.1697055e-02  -8.0598802e-02   6.5216692e-02  -2.8561828e-01  -3.4455438e-01  -1.2502775e-01   2.0761730e-01   3.3974047e-01  -2.5954097e-01   5.1539086e-01   4.0118547e-01  -4.0958727e-01  -4.3515976e-01  -1.5113728e-01  -1.0540169e+00  -3.0832494e-02   6.5707901e-01   1.2729950e+00  -3.7574005e-01   3.8880104e-01
  -2.4225363e-02  -1.4020507e-03   2.0548959e-02  -9.6029959e-02  -1.7941456e-01   6.6583985e-02  -2.8621799e-02  -1.3368163e-01   2.3584756e-01  -4.0644726e-02  -4.5330416e-01   1.0773103e-01  -2.4560458e-01   6.1364129e-01   5.8176804e-04  -2.0279459e-01   2.6078610e-01  -5.7499741e-01  -3.1303010e-01   8.7688070e-01   1.5948926e-01   3.7245923e-01  -6.7864224e-01   1.4017957e-01
   4.5929670e-03   3.2745683e-02  -5.8869252e-02   6.8094682e-02   1.7869567e-02  -1.7144505e-01  -6.3981076e-02   6.6543721e-02  -2.1619937e-01  -8.3518636e-02  -3.1966337e-01   5.5782526e-02   1.9294488e-01   7.5140494e-02  -3.6804732e-01   2.3837924e-01   3.7524114e-01   1.2996920e+00   1.9065533e-01   4.8202587e-01  -7.0749500e-02   1.2418009e+00   4.0652384e-01  -2.1301597e-01
   1.2505237e-02   4.7338742e-03   3.6987979e-02  -1.4465322e-02  -1.5827934e-02   4.8613965e-02  -4.4160753e-02   1.9882670e-02   1.5234969e-02  -1.7317100e-01   3.1922947e-02  -5.9961089e-02   4.0583508e-02  -9.3881582e-02  -3.3737893e-01   1.1732233e-01  -4.1169472e-01   9.1218947e-02  -1.3155998e-01   5.5375402e-01   1.9959154e-01  -1.9548679e-01  -3.1259179e-01  -2.9611813e-01
  -1.8293578e-02   2.8072856e-03  -1.5096148e-03   1.7158681e-02   5.4239675e-02   1.0145113e-01   5.9792244e-02  -1.2212897e-01   8.2931211e-02  -1.3265128e-01   1.0507203e-01   1.6385129e-01  -3.0644799e-01  -2.0848242e-01   9.3453103e-02   2.2709567e-01   2.2311740e-01  -6.0556201e-01   2.2931261e-01  -7.0564914e-01   1.1687995e-01  -2.4574119e-01  -5.2960757e-01  -1.6563054e-01
   7.4862128e-03   1.1601790e-02  -3.9672654e-02   1.3849610e-04   3.1792978e-02   4.2170419e-02  -1.0325654e-01  -7.6311853e-02  -1.5408065e-01   2.9569721e-01  -6.2591819e-02  -1.6943734e-01  -3.2392288e-01   2.6766713e-01   2.9343362e-01  -9.8240204e-02   5.9110006e-02  -8.5729919e-02   3.6709801e-01  -5.6255553e-01  -2.4879642e-01  -1.5608720e-01  -1.2042525e-01   6.3812526e-01
  -3.6489631e-03   9.5326668e-03  -1.5253653e-02   2.0951481e-02   9.9620834e-03   3.9312634e-03  -1.1798556e-02  -4.2774670e-02  -7.9402289e-02   4.0858774e-02  -3.8296918e-02   7.5554573e-02  -1.2400180e-01   1.5746830e-02   1.6484913e-01   1.0646839e-01   1.7958824e-01  -4.8576262e-02   1.4598945e-01  -5.2867939e-01   1.7674026e-02   2.4133007e-02  -1.1993661e-01  -4.6900807e-02
   6.7253143e-02  -2.4567664e-02   9.9496396e-02   1.1695622e-01  -1.1039690e-01  -1.8385300e-02  -4.0250286e-02  -9.3508584e-02  -5.9362306e-05  -1.7667803e-01  -6.9091139e-02  -2.8297768e-01   2.2491314e-01   1.9960108e-02   2.5387913e-02   2.5637537e-01   3.7082399e-01   8.8580861e-02   4.0815810e-01  -3.3147245e-01   5.9190790e-01  -4.5934196e-01  -2.8533881e-01   5.0014680e-02
   2.7552469e-02  -2.8590167e-02  -3.8307765e-02  -9.9835501e-03   1.4554759e-01  -4.8387333e-02  -1.7395666e-01   2.7299737e-01   8.5981408e-02   1.9583755e-01  -1.0667705e-01   1.3452315e-01  -2.2864699e-02  -1.5409607e-01  -1.2777241e-01  -2.5001993e-02  -1.8844107e-01   7.3745392e-03  -8.8032277e-04  -1.6252687e-01  -1.0076001e+00  -9.2264780e-01  -2.1774663e-02  -5.0585873e-02
  -6.0635630e-03  -3.3430760e-02  -7.9880122e-02   1.6910170e-02  -6.6218175e-02   6.6552049e-03   2.1693809e-02   3.4760022e-02  -1.4223886e-03   6.8022105e-04  -5.6887472e-02   1.2624238e-01  -1.0286979e-01   4.1078687e-02   4.3699743e-02  -7.9696941e-02  -1.2365340e-01  -1.7862515e-01  -2.3214743e-01   1.6747711e-01  -7.1007478e-02   5.6948908e-02  -1.9852681e-01  -7.9088369e-01
  -2.7203820e-02  -9.8072039e-03   4.4305614e-03  -4.2506947e-02  -9.8889974e-03  -5.2485307e-02   7.9666787e-02  -2.3659037e-01  -2.3521531e-01  -1.2079405e-01   1.3584811e-01   1.9459223e-01  -2.1284226e-01   3.6405762e-01   2.6688371e-01  -2.7122362e-01  -2.8928368e-01  -3.7623354e-02  -5.8580778e-01  -5.1034754e-03   5.6999293e-01   9.0898188e-01  -5.0515113e-02   2.4754362e-01
  -2.2003194e-02   1.0417704e-03   1.6084341e-02  -9.1795566e-02  -1.6673308e-01   5.2937534e-02  -1.8980188e-02  -1.1310517e-01   2.1462959e-01  -3.6549198e-02  -4.0458573e-01   1.1921898e-01  -1.9110695e-01   5.4848965e-01   1.7731388e-02  -1.9919466e-01   2.9280862e-01  -4.4906422e-01  -2.2550459e-01   7.2512843e-01   1.1086607e-01   3.5229687e-01  -5.3991404e-01   1.3510363e-01
   2.1218783e-03   3.1207137e-02  -4.2690330e-02   3.6023511e-02  -4.5899992e-03  -1.4707217e-01  -3.5296933e-02   6.0071077e-02  -1.5549656e-01  -9.6630341e-02  -2.8067628e-01   7.2991484e-02   1.6887300e-01   7.0822379e-02  -3.2848789e-01   1.5488334e-01   3.1666569e-01   1.0809524e+00   1.3985588e-01   4.7933856e-01  -7.2270169e-02   1.0238232e+00   2.4957767e-01  -2.9163061e-01
   4.5460650e-03   4.3401494e-03   2.8202624e-02  -2.8153501e-03  -1.0869602e-02  -1.4183851e-02  -2.0184357e-03   2.7258776e-02   2.9761527e-02  -1.0673520e-01  -9.2406791e-03  -4.5599926e-02   4.2785303e-02  -5.9314766e-02  -2.3209153e-01   1.0221248e-01  -2.8204533e-01   1.3480791e-01  -1.2042806e-01   3.4636382e-01   2.2697964e-01   9.9195092e-02  -2.0952255e-02  -2.1303878e-01
  -1.6006569e-02  -8.6463682e-03   6.7685976e-03  -1.2304129e-02   6.3956194e-03   1.0191278e-01   1.3728177e-02  -7.0837270e-02   5.7315355e-02  -9.1107290e-02   1.3181540e-01   5.5444945e-02  -1.2658837e-01  -1.6515369e-01   1.0430155e-01   2.0415153e-02   1.0670543e-01  -4.7105702e-01   2.5246376e-01  -2.5564284e-01   1.7157657e-01  -3.2764516e-01  -2.3109276e-01   1.8052372e-02
   1.1518151e-03   5.5341019e-03  -2.4563167e-02  -1.3847857e-02   8.7840690e-03   2.0182592e-02  -5.9499353e-02  -7.1383295e-02  -5.9648646e-02   2.4403910e-01  -6.1589984e-03  -8.2227808e-02  -2.5250762e-01   1.6995968e-01   3.0233813e-01  -8.6112511e-02   3.5537481e-02  -2.4495374e-01   3.4958503e-01  -5.4308198e-01  -1.7548949e-01  -9.9756111e-02   1.6659346e-01   3.9206411e-01
   1.2813638e-03   2.2659425e-02   3.4221926e-03   4.0051871e-02   1.6624692e-02  -1.0827147e-02  -3.2633190e-02  -2.5859252e-02  -1.0900860e-01  -6.4418936e-03  -1.5706390e-01   1.3358862e-01  -2.1356370e-01  -1.0798652e-02   1.0686290e-01   2.2238156e-01   2.2195887e-01  -5.5013630e-02   1.0660953e-01  -7.5260713e-01   3.0076433e-02  -6.7379171e-02  -2.0345629e-01   2.9722330e-02
   4.5622634e-02  -1.5535208e-02   6.1805881e-02   8.1788559e-02  -8.6761659e-02   1.0611728e-02  -3.3869941e-02  -5.3641482e-02   3.0841935e-02  -6.7768435e-02  -4.6676893e-02  -2.0238898e-01   1.3629179e-01   9.5401335e-02   6.6035487e-02   3.0808603e-01   3.2474644e-01   7.1700323e-02   1.6694238e-01  -1.7529172e-01   3.8632013e-01  -4.3809565e-01  -3.6168135e-01  -3.2869916e-01
   2.2872991e-02  -1.9380020e-02  -4.2193571e-02  -2.4336783e-02   1.1151701e-01  -2.0067039e-02  -1.1602803e-01   2.3319792e-01   9.8836360e-02   1.4537122e-01  -1.2484571e-01   7.0183444e-02   1.1100613e-02  -1.6601515e-01  -3.3893263e-02   5.6776033e-02  -2.2498754e-01   1.8705185e-02   5.1527981e-02  -1.4822541e-01  -6.3671920e-01  -4.2618867e-01  -3.0522870e-02  -4.4256339e-01
  -1.6320963e-02  -1.8439626e-02  -5.5711517e-02   1.3248442e-02   1.2294658e-03  -9.1837754e-03  -1.9035407e-02   5.5632539e-02   7.3681329e-02   2.4210347e-02  -4.0707650e-02   1.1845492e-02  -4.4087418e-02   1.0869745e-01   1.8243783e-01   4.6533405e-02  -1.7005488e-01  -2.6904330e-02  -1.7840417e-01   1.4732254e-01   4.1720774e-02  -2.1111932e-01  -2.7696152e-01  -7.7409606e-01
  -2.4442232e-02  -8.6222863e-04  -5.8425868e-03  -4.5511140e-02  -4.0960826e-02  -3.1005561e-02   8.7471655e-02  -1.9643172e-01  -1.4839201e-01  -1.1537007e-01   8.2871153e-02   8.4153947e-02  -1.7361371e-01   2.3360701e-01   1.4747447e-01  -1.6980955e-01  -1.6480019e-01   4.3938222e-02  -2.0277231e-01   1.2421864e-02   4.5926815e-01   5.9084275e-01   2.0641128e-01   1.8128786e-01
  -2.0246381e-02   3.0917961e-03   1.2731576e-02  -8.9211530e-02  -1.5794671e-01   4.0865160e-02  -1.1103294e-02  -9.5572303e-02   1.9313565e-01  -2.9850954e-02  -3.5850100e-01   1.3914434e-01  -1.3472601e-01   4.8246599e-01   4.0295843e-02  -1.9228648e-01   3.2724710e-01  -3.3188290e-01  -1.4160293e-01   5.8233568e-01   6.7603054e-02   3.3588666e-01  -4.0922834e-01   1.1251040e-01
   1.4384700e-04   3.0154112e-02  -2.8636174e-02   1.0007847e-02  -2.0919306e-02  -1.2366998e-01  -7.4995052e-03   5.1273476e-02  -9.7999641e-02  -1.1155231e-01  -2.4837221e-01   8.8558824e-02   1.3578241e-01   7.1985146e-02  -2.9876865e-01   8.4135773e-02   2.7486432e-01   8.6885188e-01   8.5454019e-02   4.5696668e-01  -7.8965420e-02   8.1982260e-01   9.7589422e-02  -3.5008431e-01
  -8.9051248e-04   2.9980604e-03   2.1215797e-02   1.5565904e-03  -7.8736001e-03  -5.2519010e-02   1.7081934e-02   3.3622403e-02   3.2723197e-02  -5.4020146e-02  -2.9648421e-02  -4.0392415e-02   5.2319488e-02  -2.4990879e-02  -1.3768961e-01   6.0445699e-02  -1.7358201e-01   1.8854454e-01  -9.9224924e-02   2.1478071e-01   2.3561614e-01   2.8564374e-01   1.5901175e-01  -1.1212640e-01
  -1.3991108e-02  -1.6369211e-02   1.5688383e-02  -3.3175097e-02  -2.7488628e-02   1.0097576e-01  -1.6354655e-02  -3.6419416e-02   4.1880918e-02  -6.5186353e-02   1.4883153e-01  -1.8466760e-02   5.1642843e-03  -1.4646839e-01   1.1093227e-01  -1.1621556e-01  -3.7034330e-03  -3.8768589e-01   2.1815517e-01   7.2063586e-02   2.3704902e-01  -3.8784230e-01  -1.0276604e-02   1.0633225e-01
  -3.0550352e-03   5.4715364e-04  -1.3225447e-02  -2.3198787e-02  -1.1331730e-02   2.8219671e-03  -3.4621768e-02  -6.9427361e-02   9.0400184e-03   2.0289035e-01   2.2256645e-02  -1.2925410e-02  -1.9577502e-01   1.0218239e-01   3.0518919e-01  -7.2942234e-02   1.0892892e-02  -3.6165236e-01   3.2665705e-01  -4.9130446e-01  -1.1011769e-01  -4.4783425e-02   3.8066965e-01   2.0181455e-01
   4.2312470e-03   2.6666246e-02   1.1719270e-02   4.7723910e-02   2.6391822e-02  -1.8107867e-02  -3.4184612e-02  -1.1376483e-02  -1.0585202e-01  -3.0593262e-02  -1.9767606e-01   1.3249983e-01  -2.4920905e-01  -2.4592207e-02   5.0630901e-02   2.4314979e-01   1.9949642e-01  -5.9865768e-02   9.5520820e-02  -7.9059817e-01   2.8341917e-02  -1.2800330e-01  -1.5962513e-01   9.2839438e-02
   3.0124055e-02  -7.2241457e-03   3.0907461e-02   4.8079996e-02  -6.8728854e-02   3.4331282e-02  -1.8671005e-02  -2.3512760e-02   3.5213740e-02   1.1682480e-02  -1.0046906e-02  -1.2673798e-01   6.6050771e-02   1.1869579e-01   5.4925259e-02   2.9890954e-01   2.7526048e-01   3.5558795e-02  -2.1665941e-02  -4.2115182e-02   1.8448337e-01  -3.0928249e-01  -3.2891579e-01  -4.4390453e-01
   1.9256187e-02  -1.1890609e-02  -4.2297118e-02  -3.4789047e-02   8.4160178e-02   2.3226938e-03  -6.8444676e-02   1.9625713e-01   1.0003527e-01   1.0005769e-01  -1.2722628e-01   2.9577495e-02   3.7596938e-02  -1.7013842e-01   2.2045403e-02   1.0148536e-01  -2.4064262e-01   1.8426464e-02   7.4532435e-02  -1.2373858e-01  -3.3393777e-01  -2.5085885e-02  -1.7301960e-02  -6.6473199e-01
  -2.0542669e-02  -5.3393501e-03  -3.7464338e-02   1.6787289e-03   4.4656653e-02  -1.8744021e-02  -3.5279965e-02   6.1682220e-02   1.1156906e-01   3.1900367e-02  -2.5217844e-02  -5.8822526e-02  -9.5642045e-03   1.0947947e-01   2.3560622e-01   9.8072247e-02  -2.0416361e-01   8.7516397e-02  -1.0166646e-01   1.4282473e-01   8.7741664e-02  -2.9833839e-01  -2.1322156e-01  -5.9188551e-01
  -2.1055514e-02   4.9318393e-03  -1.1589681e-02  -4.4336577e-02  -6.1993546e-02  -1.6135325e-02   8.8190228e-02  -1.6368168e-01  -8.0480955e-02  -1.0837607e-01   4.5271605e-02   3.1492567e-03  -1.3963937e-01   1.2712427e-01   4.8049875e-02  -9.5209059e-02  -6.2832982e-02   9.8481111e-02   9.7482066e-02   2.1611097e-02   3.3625151e-01   3.1218752e-01   3.8642184e-01   1.5916176e-01
  -1.8837283e-02   4.8387546e-03   1.0223235e-02  -8.7610226e-02  -1.5230488e-01   3.0310121e-02  -5.4253415e-03  -8.1138679e-02   1.7106442e-01  -2.1301332e-02  -3.1712123e-01   1.6511369e-01  -7.8846802e-02   4.1753705e-01   6.6603430e-02  -1.8203393e-01   3.6304413e-01  -2.2302203e-01  -6.2591230e-02   4.4963185e-01   2.8861456e-02   3.2283925e-01  -2.8614970e-01   7.7785914e-02
  -1.4054323e-03   2.9250322e-02  -1.6668029e-02  -1.0668804e-02  -3.2136764e-02  -1.0109477e-01   1.8310040e-02   4.1159930e-02  -4.4335733e-02  -1.2688407e-01  -2.2154588e-01   1.0089159e-01   9.7194897e-02   7.8447701e-02  -2.7773494e-01   2.1762084e-02   2.4800830e-01   6.6836394e-01   3.0978907e-02   4.2354533e-01  -8.8034469e-02   6.3009627e-01  -4.3693986e-02  -3.8541240e-01
  -4.0740702e-03   1.2054807e-03   1.6182373e-02   7.4912413e-04  -6.2331812e-03  -7.0581440e-02   1.9030093e-02   3.8472154e-02   2.8057646e-02  -1.6124116e-02  -3.4732876e-02  -3.9700771e-02   6.3710067e-02   4.4935585e-03  -5.7565279e-02   7.1188773e-03  -8.6036699e-02   2.4207785e-01  -7.2590352e-02   1.3905834e-01   2.2711473e-01   3.7894453e-01   2.4508996e-01  -1.2865800e-02
  -1.2373852e-02  -2.0958930e-02   2.4144635e-02  -4.6394857e-02  -4.8521179e-02   9.8481153e-02  -3.1634968e-02  -1.6768734e-02   3.6866616e-02  -5.1992558e-02   1.5936869e-01  -6.3916911e-02   9.4759763e-02  -1.4635702e-01   1.1358706e-01  -1.9328603e-01  -1.0557313e-01  -3.4618659e-01   1.4430663e-01   2.9208404e-01   3.0408453e-01  -4.2417777e-01   1.4817553e-01   1.2474642e-01
  -5.3500636e-03  -3.6454071e-03  -5.5916497e-03  -2.8874562e-02  -2.8181867e-02  -1.0240730e-02  -2.4014435e-02  -6.8952302e-02   5.6305025e-02   1.7216793e-01   2.9451733e-02   3.5085621e-02  -1.5285283e-01   6.1260327e-02   3.0007855e-01  -6.5014044e-02  -1.8334783e-02  -4.4030456e-01   2.9671596e-01  -4.0699253e-01  -5.3915266e-02   2.1339224e-03   5.3487570e-01   6.1975504e-02
   5.3451960e-03   2.4183253e-02   1.3133493e-02   4.6710585e-02   3.5329046e-02  -1.9668587e-02  -2.4950205e-02  -5.0893456e-04  -8.3618660e-02  -3.6049572e-02  -1.8202504e-01   9.7642306e-02  -2.3951943e-01  -3.1862623e-02   5.1902113e-03   2.0430298e-01   1.3988892e-01  -6.0974996e-02   9.8077854e-02  -7.0222642e-01   2.2100839e-02  -1.5862431e-01  -5.2503211e-02   1.2872251e-01
   1.9690848e-02  -8.3689549e-04   7.4866188e-03   2.0402153e-02  -5.5217695e-02   5.1499867e-02  -7.2161897e-04  -1.9370907e-03   2.1007619e-02   6.4002735e-02   3.1718097e-02  -5.9831017e-02   1.5099195e-02   1.1137905e-01   1.6883497e-02   2.4941706e-01   2.2802966e-01  -1.7632117e-02  -1.6484944e-01   5.7774576e-02   1.0854546e-02  -1.3339404e-01  -2.4595863e-01  -3.9191547e-01
   1.6377878e-02  -6.2551159e-03  -3.9095763e-02  -4.0605948e-02   6.2877595e-02   1.8604469e-02  -3.2147375e-02   1.6254332e-01   9.3318544e-02   6.0683321e-02  -1.1956561e-01   7.3517916e-03   5.7510287e-02  -1.6424205e-01   5.0369976e-02   1.1998401e-01  -2.3619243e-01   1.0361179e-02   7.3776674e-02  -9.4684090e-02  -8.7752990e-02   2.7537116e-01   5.3724738e-03  -7.5939517e-01
  -2.0097547e-02   4.5118374e-03  -2.3197899e-02  -1.1092500e-02   6.7291856e-02  -2.4018272e-02  -3.6110459e-02   5.5538709e-02   1.2062602e-01   2.6602274e-02  -1.5923257e-02  -9.3664246e-02   7.1822137e-03   7.2834891e-02   2.3091911e-01   9.8263046e-02  -2.2116931e-01   1.6557171e-01  -1.4721282e-02   1.3540691e-01   9.7585996e-02  -2.7954147e-01  -8.4886601e-02  -3.3418112e-01
  -1.7405384e-02   7.9293444e-03  -1.3558987e-02  -3.9432402e-02  -7.3781638e-02  -7.4325241e-03   8.2286485e-02  -1.3675146e-01  -2.8007342e-02  -9.9349158e-02   2.0187778e-02  -5.3692662e-02  -1.0930993e-01   4.5322441e-02  -2.8846416e-02  -3.9046799e-02   1.6045338e-02   1.3142739e-01   3.2022206e-01   2.4433950e-02   2.0969725e-01   6.9998930e-02   4.8879567e-01   1.5734423e-01
  -1.7670347e-02   6.3336421e-03   8.2858149e-03  -8.6433173e-02  -1.4899027e-01   2.1167219e-02  -1.9942119e-03  -6.9689065e-02   1.4858742e-01  -1.1701636e-02  -2.8176293e-01   1.9430751e-01  -2.5598939e-02   3.5552942e-01   9.4716582e-02  -1.6921353e-01   3.9868540e-01  -1.2228505e-01   1.0354917e-02   3.2869181e-01  -6.4897262e-03   3.1246619e-01  -1.6938860e-01   3.5942989e-02
  -2.5927092e-03   2.8240554e-02  -6.6418866e-03  -2.6706940e-02  -3.9238053e-02  -7.9242513e-02   4.1133693e-02   3.0521150e-02   4.8990507e-03  -1.4150927e-01  -1.9933458e-01   1.0905832e-01   5.6101596e-02   8.9691213e-02  -2.6387973e-01  -3.5281704e-02   2.3404781e-01   4.8361692e-01  -2.0985717e-02   3.8580684e-01  -9.6671295e-02   4.5497913e-01  -1.7043073e-01  -3.9711433e-01
  -5.3484712e-03  -6.3981923e-04   1.3066643e-02  -3.3531423e-03  -5.4795203e-03  -7.2829399e-02   9.2501916e-03   4.1418924e-02   1.9282945e-02   7.1376554e-03  -2.9631159e-02  -3.9792921e-02   7.3115387e-02   2.6258631e-02   6.2624103e-03  -4.5719169e-02  -1.8004374e-02   2.8785503e-01  -4.3692019e-02   1.0127436e-01   2.0336463e-01   3.9708066e-01   2.5755186e-01   7.1665520e-02
  -1.1233537e-02  -2.3056026e-02   3.1256695e-02  -5.3106074e-02  -5.8375598e-02   9.4511196e-02  -3.4191139e-02  -9.3069972e-03   4.1381770e-02  -4.8517997e-02   1.6606241e-01  -8.7082527e-02   1.4895112e-01  -1.5865608e-01   1.1329445e-01  -2.2272714e-01  -1.9646397e-01  -3.3625114e-01   4.7628074e-02   4.2152374e-01   3.6537860e-01  -4.3663545e-01   2.5699909e-01   9.7845094e-02
  -6.0306801e-03  -7.1937088e-03  -1.2460333e-03  -3.1764445e-02  -4.1754033e-02  -1.9475245e-02  -2.3519156e-02  -6.8942074e-02   8.6053909e-02   1.5126837e-01   2.1616671e-02   6.1803830e-02  -1.2197620e-01   4.2845184e-02   2.8638120e-01  -6.5014109e-02  -5.3360578e-02  -4.8610602e-01   2.5838723e-01  -2.9486848e-01  -7.2069120e-03   3.6843353e-02   6.3792702e-01  -3.5594917e-02
   4.8865069e-03   1.7610664e-02   1.0552843e-02   3.9718922e-02   4.0866267e-02  -1.7172399e-02  -1.1494643e-02   6.1884033e-03  -5.3428746e-02  -2.7889136e-02  -1.3036775e-01   4.9309815e-02  -1.9482829e-01  -3.7389610e-02  -2.3786257e-02   1.3581068e-01   6.5562510e-02  -5.7005487e-02   1.0407869e-01  -5.4023003e-01   1.7256209e-02  -1.6192749e-01   6.9957742e-02   1.3303915e-01
   1.3142351e-02   3.0744513e-03  -8.5997808e-03   1.1008622e-03  -4.4934723e-02   6.1531484e-02   1.5364165e-02   1.2665500e-02  -3.7435658e-03   9.2737489e-02   7.1865814e-02  -5.2723767e-03  -1.7289598e-02   9.0154752e-02  -2.6715653e-02   1.7881732e-01   1.8565519e-01  -8.1795211e-02  -2.6924175e-01   1.2193874e-01  -1.2160194e-01   4.3449573e-02  -1.5568336e-01  -2.5458089e-01
   1.3934661e-02  -2.3711848e-03  -3.3333831e-02  -4.1847507e-02   4.6985137e-02   2.9040445e-02  -7.1056030e-03   1.3237836e-01   8.2103265e-02   2.7947984e-02  -1.0661784e-01  -1.7456091e-03   7.1341487e-02  -1.4820395e-01   6.0032089e-02   1.2157957e-01  -2.1399179e-01  -1.2953264e-03   5.5611985e-02  -6.4545579e-02   1.1055681e-01   4.7727600e-01   2.9896785e-02  -7.6315055e-01
  -1.6496712e-02   1.0519977e-02  -1.1677353e-02  -2.0722675e-02   7.3228009e-02  -2.6636271e-02  -2.9164696e-02   4.0492875e-02   1.0986713e-01   1.1939633e-02  -1.5570177e-02  -1.0174447e-01   1.1666856e-02   2.2942335e-02   1.9393968e-01   6.9538172e-02  -2.2012361e-01   2.1257517e-01   7.1082788e-02   1.1535444e-01   9.1383290e-02  -2.1462205e-01   4.8278374e-02  -7.4218003e-02
  -1.3788371e-02   8.6530239e-03  -1.2642568e-02  -3.1751417e-02  -7.7438723e-02  -4.0821072e-03   7.0982061e-02  -1.1407984e-01   1.2101338e-02  -8.7908556e-02   5.2616279e-03  -9.1277133e-02  -8.1545135e-02  -1.3109719e-02  -8.3255655e-02   4.9335296e-03   7.2037269e-02   1.4797636e-01   4.7302147e-01   2.3942831e-02   8.6284756e-02  -1.3595163e-01   5.1943639e-01   1.5933324e-01
  -1.6658438e-02   7.6011904e-03   6.6813425e-03  -8.5242467e-02  -1.4719908e-01   1.3303260e-02  -5.8669826e-04  -6.0991096e-02   1.2616903e-01  -1.8425294e-03  -2.5305329e-01   2.2391090e-01   2.3315705e-02   2.9798593e-01   1.2269807e-01  -1.5498739e-01   4.3251863e-01  -2.9615690e-02   7.6177363e-02   2.2120302e-01  -3.9637840e-02   3.0398836e-01  -5.7584421e-02  -8.7367617e-03
  -3.4850944e-03   2.6953131e-02   1.6615982e-03  -3.8775770e-02  -4.3141192e-02  -5.8058364e-02   6.0154783e-02   1.9920897e-02   4.9226957e-02  -1.5461608e-01  -1.8116763e-01   1.1271540e-01   1.4909254e-02   1.0494624e-01  -2.5545847e-01  -8.8772345e-02   2.3077595e-01   3.1779596e-01  -6.8686680e-02   3.4854862e-01  -1.0238033e-01   2.9487698e-01  -2.8031620e-01  -3.8667842e-01
  -5.0987954e-03  -2.2512222e-03   1.1673245e-02  -9.1421165e-03  -5.2813212e-03  -6.3694305e-02  -7.5378291e-03   4.2224218e-02   9.3030679e-03   1.7074423e-02  -1.8950592e-02  -3.7957310e-02   7.8253569e-02   3.9158000e-02   5.3161712e-02  -8.9392615e-02   3.2795458e-02   3.2115975e-01  -1.4487435e-02   8.6243733e-02   1.6661234e-01   3.5925723e-01   2.1733716e-01   1.3428421e-01
  -1.0599538e-02  -2.3302416e-02   3.6411486e-02  -5.4567126e-02  -5.9095299e-02   8.9336395e-02  -2.6684324e-02  -1.1177750e-02   5.3672521e-02  -5.1895065e-02   1.7088955e-01  -9.3954946e-02   1.7479321e-01  -1.7755895e-01   1.1155997e-01  -2.1697416e-01  -2.7423697e-01  -3.4726277e-01  -5.7207197e-02   4.7855575e-01   4.1564788e-01  -4.2720068e-01   3.2638080e-01   4.7753884e-02
  -5.4488449e-03  -1.0132454e-02   4.8004176e-04  -3.2646556e-02  -5.2335935e-02  -2.5437310e-02  -2.9613675e-02  -6.8822290e-02   1.0160317e-01   1.3917435e-01   4.0779006e-03   7.0077596e-02  -1.0068052e-01   4.1758657e-02   2.6477457e-01  -7.2508121e-02  -9.3275981e-02  -5.0445615e-01   2.1105861e-01  -1.6360909e-01   3.0296052e-02   5.7711597e-02   6.9496022e-01  -1.0030001e-01
   3.2066717e-03   9.0073018e-03   6.1834828e-03   2.9278744e-02   4.1753231e-02  -1.2175231e-02   1.6360141e-03   8.7774303e-03  -2.3487549e-02  -1.1423991e-02  -6.0407636e-02   2.2000634e-03  -1.2646840e-01  -4.4321448e-02  -3.4207071e-02   6.0745960e-02  -6.8375118e-03  -4.7513710e-02   1.0712863e-01  -3.4797328e-01   1.6455361e-02  -1.4217976e-01   1.7576567e-01   1.0884716e-01
   9.3266500e-03   4.5384287e-03  -1.8160876e-02  -9.4664236e-03  -3.6552923e-02   6.4589848e-02   2.6718021e-02   2.2059326e-02  -3.1727745e-02   1.0228603e-01   1.0601177e-01   3.4255171e-02  -3.3312284e-02   6.6392704e-02  -5.9990234e-02   1.0313554e-01   1.4835048e-01  -1.4900516e-01  -3.4063632e-01   1.5415366e-01  -2.0931933e-01   1.9080072e-01  -8.3829521e-02  -9.4695988e-02
   1.1678262e-02   4.2597235e-05  -2.5907500e-02  -3.9190946e-02   3.5731329e-02   3.4277580e-02   7.6031118e-03   1.0597784e-01   6.9230687e-02   2.3233372e-03  -9.2083540e-02  -2.4938111e-03   7.9309590e-02  -1.2366231e-01   5.8119484e-02   1.1351016e-01  -1.7747784e-01  -1.2631958e-02   2.6572319e-02  -3.5255635e-02   2.6756059e-01   5.8930697e-01   5.2992530e-02  -7.0576999e-01
  -1.1209460e-02   1.2798124e-02  -2.2863853e-03  -2.5140030e-02   6.7014344e-02  -2.7694869e-02  -2.0091751e-02   2.0205411e-02   8.7970822e-02  -7.9871762e-03  -2.4283941e-02  -9.2132276e-02   8.2445630e-03  -2.2461606e-02   1.4533696e-01   3.1032343e-02  -2.0304511e-01   2.3610077e-01   1.4655962e-01   8.0563227e-02   8.0655157e-02  -1.4613183e-01   1.4710133e-01   1.3661114e-01
  -1.0416425e-02   7.7040941e-03  -9.7640961e-03  -2.2502570e-02  -7.4368201e-02  -4.9878823e-03   5.6014492e-02  -9.4279328e-02   4.2336648e-02  -7.3904562e-02  -1.4680083e-03  -1.1389603e-01  -5.5680838e-02  -5.0993938e-02  -1.1744683e-01   4.0856418e-02   1.0627324e-01   1.5259216e-01   5.6508998e-01   2.3298016e-02  -2.8936327e-02  -3.0410530e-01   4.8904197e-01   1.5529734e-01
  -1.5736988e-02   8.6523400e-03   5.2368635e-03  -8.3722900e-02  -1.4620715e-01   6.5792844e-03  -8.2452411e-04  -5.4749908e-02   1.0438896e-01   7.5522510e-03  -2.3102786e-01   2.5148241e-01   6.6748228e-02   2.4606224e-01   1.4886289e-01  -1.4051937e-01   4.6303000e-01   5.5007818e-02   1.3400411e-01   1.2840402e-01  -7.1629968e-02   2.9672598e-01   5.0074547e-02  -5.2903363e-02
  -4.1476716e-03   2.5296567e-02   8.5039704e-03  -4.7502934e-02  -4.4647483e-02  -3.7538854e-02   7.4795583e-02   9.7046262e-03   8.8351251e-02  -1.6569298e-01  -1.6669848e-01   1.1200873e-01  -2.4565145e-02   1.2328788e-01  -2.5061211e-01  -1.3938169e-01   2.3589135e-01   1.7310125e-01  -1.1105640e-01   3.1475696e-01  -1.0323518e-01   1.5028512e-01  -3.7220665e-01  -3.5703025e-01
  -3.7196903e-03  -3.4515749e-03   1.1684196e-02  -1.5320554e-02  -5.4029079e-03  -4.7328734e-02  -2.7430582e-02   4.0841141e-02   3.6083113e-04   1.5851979e-02  -6.5941001e-03  -3.2612396e-02   7.8125854e-02   4.3648841e-02   8.3665029e-02  -1.1867140e-01   6.9121534e-02   3.3985924e-01   1.3896435e-02   8.2033540e-02   1.1946455e-01   2.8431619e-01   1.4457115e-01   1.7282335e-01
  -1.0457189e-02  -2.2302100e-02   3.9287743e-02  -5.2081343e-02  -5.2928496e-02   8.3358851e-02  -1.2093421e-02  -1.9467171e-02   7.1350702e-02  -5.9566517e-02   1.7518914e-01  -8.9948155e-02   1.7929834e-01  -1.9803240e-01   1.1019540e-01  -1.8798907e-01  -3.3707549e-01  -3.6887886e-01  -1.5805345e-01   4.8099013e-01   4.5155399e-01  -3.9947726e-01   3.6405273e-01  -7.0360386e-03
  -3.9812483e-03  -1.2413450e-02   3.8794613e-04  -3.2154757e-02  -6.0410954e-02  -2.8729254e-02  -3.9474868e-02  -6.8369624e-02   1.0565280e-01   1.3454108e-01  -1.8853357e-02   6.4751210e-02  -8.6132640e-02   5.2513791e-02   2.3700867e-01  -8.4794379e-02  -1.3550593e-01  -5.0056927e-01   1.5521832e-01  -2.4372318e-02   5.9134357e-02   6.5336418e-02   7.0872889e-01  -1.4138214e-01
   7.0980677e-04   1.9896234e-05   1.5544614e-03   1.7620731e-02   3.7886921e-02  -6.0973617e-03   1.1795022e-02   7.8628483e-03   9.2047081e-04   8.2185023e-03   1.3346471e-02  -3.4504163e-02  -4.5915804e-02  -5.4201804e-02  -2.7307567e-02  -5.1481860e-03  -6.6369827e-02  -3.2890152e-02   1.0387353e-01  -1.5818810e-01   1.9824210e-02  -1.0490101e-01   2.4736213e-01   6.4158736e-02
   7.2382581e-03   4.0179428e-03  -2.2453334e-02  -1.2482780e-02  -2.8909951e-02   6.1544139e-02   3.2213111e-02   2.7949161e-02  -5.7041695e-02   9.7470858e-02   1.3189685e-01   5.7534802e-02  -3.6276240e-02   4.6299142e-02  -7.3566192e-02   3.4052055e-02   1.1473963e-01  -2.1130375e-01  -3.8391851e-01   1.6222597e-01  -2.5553461e-01   2.9323550e-01  -4.0421037e-02   4.5645200e-02
   9.4375714e-03   1.3735137e-03  -1.7745171e-02  -3.3709137e-02   2.8313667e-02   3.5253542e-02   1.3611351e-02   8.3397369e-02   5.6791660e-02  -1.6063910e-02  -7.8645680e-02   1.0791195e-03   8.1497408e-02  -9.3521162e-02   4.9718135e-02   1.0074486e-01  -1.3066991e-01  -2.0520830e-02  -7.1396141e-03  -7.8352656e-03   3.8833344e-01   6.2531058e-01   7.4561622e-02  -6.1004164e-01
  -5.5065473e-03   1.2009241e-02   5.1332651e-03  -2.4173199e-02   5.3204450e-02  -2.7700558e-02  -1.2361839e-02  -1.6543969e-03   6.2395546e-02  -2.8981255e-02  -4.0050136e-02  -7.2875152e-02   1.3125387e-04  -5.2442113e-02   9.9259547e-02  -3.0760307e-03  -1.7387329e-01   2.4404298e-01   2.0505449e-01   3.4458464e-02   7.0703367e-02  -9.9201216e-02   1.9263016e-01   2.7046290e-01
  -7.4135532e-03   5.6781209e-03  -5.7789774e-03  -1.2914329e-02  -6.6200478e-02  -8.8968229e-03   3.9343482e-02  -7.6251776e-02   6.4542336e-02  -5.7526351e-02  -1.6926721e-03  -1.2510508e-01  -3.1344585e-02  -7.2059946e-02  -1.3525532e-01   7.1006561e-02   1.2087716e-01   1.4872688e-01   6.0657605e-01   2.4978068e-02  -1.3223405e-01  -4.3233191e-01   4.1104852e-01   1.4076492e-01
  -1.4865641e-02   9.4943047e-03   3.8585768e-03  -8.1674653e-02  -1.4541445e-01   8.7018671e-04  -2.2742016e-03  -5.0655029e-02   8.3794009e-02   1.5867569e-02  -2.1524933e-01   2.7521513e-01   1.0415934e-01   2.0047524e-01   1.7197254e-01  -1.2668630e-01   4.8904277e-01   1.3166713e-01   1.8323531e-01   5.0761178e-02  -1.0323784e-01   2.9024508e-01   1.5346178e-01  -9.4181759e-02
  -4.6404861e-03   2.3251069e-02   1.4155026e-02  -5.3466004e-02  -4.4412212e-02  -1.7729398e-02   8.4762307e-02   2.8445322e-05   1.2220752e-01  -1.7451236e-01  -1.5573244e-01   1.0743768e-01  -6.1082582e-02   1.4373740e-01  -2.4752297e-01  -1.8693174e-01   2.4703515e-01   5.0735740e-02  -1.4757705e-01   2.8587981e-01  -9.8063621e-02   2.1775005e-02  -4.4573837e-01  -3.1194847e-01
  -1.5876917e-03  -4.1605262e-03   1.2703359e-02  -2.0915447e-02  -5.6494331e-03  -2.7405865e-02  -4.7362262e-02   3.7441429e-02  -5.9218519e-03   6.1718695e-03   4.3543566e-03  -2.3338833e-02   7.2644138e-02   4.1515416e-02   9.9116953e-02  -1.3158046e-01   9.3801276e-02   3.4395742e-01   4.0748371e-02   8.0189055e-02   6.4840254e-02   1.8940088e-01   5.7394924e-02   1.8899943e-01
  -1.0756668e-02  -2.0587901e-02   3.9852552e-02  -4.6934760e-02  -4.2176405e-02   7.7051892e-02   6.5242307e-03  -3.1414003e-02   9.1628555e-02  -6.9399410e-02   1.7973432e-01  -7.9570433e-02   1.6917391e-01  -2.1613401e-01   1.1116735e-01  -1.4641665e-01  -3.8344615e-01  -3.9151745e-01  -2.4550972e-01   4.4506348e-01   4.7145913e-01  -3.5813575e-01   3.7557097e-01  -5.2483995e-02
  -1.9995981e-03  -1.3944904e-02  -7.1395994e-04  -3.0757348e-02  -6.6532456e-02  -2.9975513e-02  -5.0937981e-02  -6.7581001e-02   1.0038597e-01   1.3576623e-01  -4.3925219e-02   5.1631524e-02  -7.5540570e-02   6.9843314e-02   2.0548230e-01  -9.7979009e-02  -1.7645287e-01  -4.7922745e-01   9.2558205e-02   1.1092505e-01   7.9754656e-02   6.2046675e-02   6.8099333e-01  -1.6673670e-01
  -2.1835280e-03  -8.1445256e-03  -2.4147807e-03   6.5863890e-03   3.0058870e-02  -1.8555223e-04   1.7963900e-02   4.4686347e-03   1.7167039e-02   2.6483782e-02   7.9908698e-02  -5.6561411e-02   3.6038095e-02  -6.7160101e-02  -7.0476278e-03  -5.3093963e-02  -1.0726434e-01  -1.4224308e-02   9.3175992e-02   7.1021333e-03   2.5831232e-02  -5.6445048e-02   2.7911708e-01   9.4344615e-03
   6.0961267e-03   2.2220533e-03  -2.2940912e-02  -1.0100734e-02  -2.1183715e-02   5.3819174e-02   3.2193204e-02   3.1741768e-02  -7.5655922e-02   8.3081520e-02   1.4893390e-01   6.5085278e-02  -3.0109663e-02   3.1688326e-02  -6.4482581e-02  -2.1478499e-02   8.2676127e-02  -2.6207856e-01  -4.0314797e-01   1.5562993e-01  -2.6766214e-01   3.4804436e-01  -2.3173167e-02   1.4387826e-01
   7.1262656e-03   2.0380041e-03  -9.6982768e-03  -2.6638479e-02   2.3899970e-02   3.3074717e-02   1.3008752e-02   6.4496784e-02   4.6054444e-02  -2.7508444e-02  -6.8078337e-02   5.8563996e-03   7.8013170e-02  -6.1363048e-02   3.8100733e-02   8.6100008e-02  -7.7706294e-02  -2.2909515e-02  -4.0096530e-02   1.7020502e-02   4.7703910e-01   6.0246974e-01   9.6229507e-02  -4.9243308e-01
  -3.5101122e-04   9.1481669e-03   1.0482450e-02  -1.8993159e-02   3.5927126e-02  -2.6638581e-02  -7.4320848e-03  -2.1790302e-02   3.8724193e-02  -4.7180490e-02  -5.9450971e-02  -5.0265357e-02  -1.0408081e-02  -6.2398530e-02   6.3006781e-02  -2.4293952e-02  -1.3739647e-01   2.4313702e-01   2.4252276e-01  -1.6492968e-02   6.3050509e-02  -8.3553914e-02   1.8307518e-01   3.2135451e-01
  -4.8263823e-03   3.0984576e-03  -1.3991941e-03  -4.0413311e-03  -5.4697853e-02  -1.4535327e-02   2.2855207e-02  -5.9256542e-02   7.9957226e-02  -3.9348490e-02   3.0539888e-03  -1.2771835e-01  -8.3447053e-03  -8.0341539e-02  -1.4126153e-01   9.6332478e-02   1.1893167e-01   1.3876917e-01   6.0790674e-01   3.0278716e-02  -2.2102183e-01  -5.1913580e-01   2.9968555e-01   1.1498599e-01
  -1.4027339e-02   1.0137294e-02   2.5300964e-03  -7.8997671e-02  -1.4436432e-01  -3.9216763e-03  -4.5184869e-03  -4.8412830e-02   6.4798986e-02   2.2617180e-02  -2.0493579e-01   2.9406326e-01   1.3559650e-01   1.6150644e-01   1.9133925e-01  -1.1391657e-01   5.0981838e-01   2.0056779e-01   2.2362025e-01  -1.2176142e-02  -1.3489386e-01   2.8444163e-01   2.5138356e-01  -1.3107931e-01
  -5.0151393e-03   2.0856026e-02   1.8862070e-02  -5.7185072e-02  -4.2925352e-02   1.2818200e-03   9.0075308e-02  -9.0950462e-03   1.5100200e-01  -1.8110601e-01  -1.4815972e-01   9.9694038e-02  -9.3961520e-02   1.6536036e-01  -2.4459337e-01  -2.3070813e-01   2.6180693e-01  -4.9083145e-02  -1.7817104e-01   2.6220476e-01  -8.6544662e-02  -9.0057810e-02  -5.0098045e-01  -2.5550585e-01
   9.6046554e-04  -4.3738831e-03   1.4306845e-02  -2.5275887e-02  -5.8231229e-03  -6.9743987e-03  -6.5070296e-02   3.2415435e-02  -8.4734100e-03  -9.0490313e-03   1.1686549e-02  -1.0784199e-02   6.2263042e-02   3.5468300e-02   1.0130233e-01  -1.2895817e-01   1.0941053e-01   3.3505566e-01   6.5404371e-02   7.5621557e-02   5.8928098e-03   8.8984445e-02  -2.8914000e-02   1.8714863e-01
  -1.1421592e-02  -1.8597825e-02   3.8326189e-02  -4.0333696e-02  -2.9033268e-02   7.0895164e-02   2.6279660e-02  -4.4569774e-02   1.1161261e-01  -7.9778970e-02   1.8482822e-01  -6.6286284e-02   1.5054114e-01  -2.2917465e-01   1.1632090e-01  -1.0103741e-01  -4.1213419e-01  -4.0682893e-01  -3.1298311e-01   3.8465337e-01   4.7505661e-01  -3.0830331e-01   3.6487684e-01  -7.9313102e-02
   1.5611878e-04  -1.4631878e-02  -2.1221187e-03  -2.8752179e-02  -7.1204231e-02  -2.9808530e-02  -6.2387973e-02  -6.6527546e-02   8.7640410e-02   1.4105790e-01  -6.8891647e-02   3.6445177e-02  -6.6558521e-02   8.9162872e-02   1.7272669e-01  -1.0808678e-01  -2.1220083e-01  -4.4466098e-01   2.5855341e-02   2.3131491e-01   9.2254634e-02   5.1270009e-02   6.1385504e-01  -1.8210572e-01
  -5.0697043e-03  -1.4706100e-02  -5.3031517e-03  -2.4253664e-03   1.9664685e-02   4.5284529e-03   2.0381898e-02  -1.1969977e-04   2.4821041e-02   3.9709684e-02   1.3184089e-01  -6.3748327e-02   1.0999864e-01  -8.2215088e-02   2.0720013e-02  -8.0284199e-02  -1.2807467e-01   6.8772777e-03   7.5321873e-02   1.3567237e-01   3.2157148e-02  -3.5187247e-03   2.7426026e-01  -4.4691031e-02
   5.3751569e-03  -8.5817604e-05  -2.1067787e-02  -4.8467418e-03  -1.3006828e-02   4.3161474e-02   2.8011661e-02   3.4357772e-02  -8.5585789e-02   6.3445551e-02   1.5764594e-01   5.9108000e-02  -1.8827332e-02   2.1200136e-02  -3.5112944e-02  -6.0857287e-02   4.9985691e-02  -2.9687932e-01  -4.0171489e-01   1.4335706e-01  -2.5501290e-01   3.6177606e-01  -2.2075632e-02   1.9354273e-01
   4.7365658e-03   2.4138266e-03  -2.4554902e-03  -1.9168460e-02   2.1659550e-02   2.8882539e-02   8.0598608e-03   4.8933334e-02   3.7503727e-02  -3.2750649e-02  -6.1396414e-02   9.6682530e-03   6.9137440e-02  -3.0841546e-02   2.5155540e-02   7.0614719e-02  -2.2462520e-02  -1.8899762e-02  -6.7979343e-02   3.8508353e-02   5.3736950e-01   5.3930505e-01   1.1986620e-01  -3.6432052e-01
   3.6522618e-03   5.3084853e-03   1.3607467e-02  -1.1478944e-02   1.8542468e-02  -2.4155479e-02  -5.1962835e-03  -3.7620344e-02   2.0338196e-02  -5.9484869e-02  -7.8524320e-02  -2.8495261e-02  -2.1778311e-02  -5.2910081e-02   3.7922504e-02  -2.9590654e-02  -9.8267460e-02   2.3810299e-01   2.5740419e-01  -6.5215159e-02   5.7488547e-02  -9.7087291e-02   1.2893554e-01   3.0068142e-01
  -2.6441369e-03   3.7421803e-04   2.8492737e-03   3.3644195e-03  -4.1633267e-02  -2.0735007e-02   8.1139834e-03  -4.2921016e-02   8.9349856e-02  -2.0306130e-02   1.1326880e-02  -1.2389691e-01   1.3403808e-02  -7.9653022e-02  -1.3998177e-01   1.1703517e-01   1.0433270e-01   1.2416763e-01   5.7920178e-01   3.9152564e-02  -2.9378625e-01  -5.6464578e-01   1.6842370e-01   7.9312274e-02
  -1.3225131e-02   1.0597571e-02   1.2970479e-03  -7.5670169e-02  -1.4273905e-01  -7.8605521e-03  -7.1949839e-03  -4.7761487e-02   4.7643530e-02   2.7442003e-02  -1.9908740e-01   3.0773271e-01   1.6159662e-01   1.2905384e-01   2.0682941e-01  -1.0216241e-01   5.2506112e-01   2.6206385e-01   2.5530521e-01  -6.1736288e-02  -1.6669411e-01   2.7955465e-01   3.4169549e-01  -1.6279769e-01
  -5.3118429e-03   1.8195113e-02   2.2827070e-02  -5.9118359e-02  -4.0509233e-02   1.9374114e-02   9.1071942e-02  -1.7744191e-02   1.7521881e-01  -1.8572564e-01  -1.4389776e-01   8.9515211e-02  -1.2302994e-01   1.8734390e-01  -2.4059799e-01  -2.6977149e-01   2.7779175e-01  -1.2706871e-01  -2.0310462e-01   2.4326425e-01  -6.9208533e-02  -1.8467597e-01  -5.3818440e-01  -1.9160105e-01
   3.6420926e-03  -4.1388110e-03   1.6095422e-02  -2.8059394e-02  -5.7079987e-03   1.1630484e-02  -7.9038293e-02   2.6336787e-02  -6.7186151e-03  -2.6954157e-02   1.4074451e-02   3.5832977e-03   4.7701076e-02   2.8656910e-02   9.2152869e-02  -1.1379915e-01   1.1811231e-01   3.1581651e-01   8.7000294e-02   6.6157832e-02  -5.4087782e-02  -5.6763798e-03  -1.0255500e-01   1.7295836e-01
  -1.2355682e-02  -1.6662940e-02   3.5121453e-02  -3.3342596e-02  -1.5424810e-02   6.5310966e-02   4.4698790e-02  -5.6894413e-02   1.2864457e-01  -8.9682378e-02   1.9040472e-01  -5.2583473e-02   1.2862311e-01  -2.3572025e-01   1.2697092e-01  -5.8556655e-02  -4.2238167e-01  -4.0815479e-01  -3.5666101e-01   3.1096392e-01   4.6295147e-01  -2.5499079e-01   3.3505501e-01  -8.2841958e-02
   2.1988574e-03  -1.4412448e-02  -3.3196746e-03  -2.6281302e-02  -7.4793153e-02  -2.8858095e-02  -7.2627844e-02  -6.5222100e-02   6.9086312e-02   1.4852004e-01  -9.2378861e-02   2.3953094e-02  -5.7599490e-02   1.0690793e-01   1.4092106e-01  -1.1202142e-01  -2.3914984e-01  -4.0052002e-01  -4.1313920e-02   3.2821493e-01   9.6274807e-02   3.6863411e-02   5.1080908e-01  -1.9073574e-01
  -7.5906990e-03  -1.9266800e-02  -7.0527986e-03  -8.4779622e-03   8.4069916e-03   7.2689721e-03   2.0120806e-02  -4.5335605e-03   2.5063860e-02   4.5362388e-02   1.6502358e-01  -5.8724272e-02   1.6853033e-01  -9.7646175e-02   4.9219355e-02  -8.8456851e-02  -1.3064052e-01   2.8513440e-02   5.1351028e-02   2.2345532e-01   3.6469270e-02   4.7333642e-02   2.4163252e-01  -8.9240468e-02
   4.7930900e-03  -2.2489420e-03  -1.8077247e-02   9.0661597e-04  -4.4915705e-03   3.1360439e-02   2.1489563e-02   3.6135556e-02  -8.6746638e-02   4.2078456e-02   1.5910844e-01   4.3119694e-02  -6.0506167e-03   1.1749215e-02   8.5817522e-03  -8.4892652e-02   1.5044707e-02  -3.1367251e-01  -3.8251749e-01   1.3231585e-01  -2.2709177e-01   3.4627545e-01  -2.4208169e-02   1.9948592e-01
   2.3220409e-03   2.7905443e-03   3.5106409e-03  -1.2278539e-02   2.0806078e-02   2.3726690e-02   9.3799582e-04   3.6190970e-02   3.0982322e-02  -3.2942398e-02  -5.9014826e-02   1.1214989e-02   5.5425587e-02  -5.1285913e-03   1.1928765e-02   5.4089364e-02   3.1715718e-02  -8.6445771e-03  -8.7779171e-02   5.5500092e-02   5.7282083e-01   4.5376286e-01   1.4636063e-01  -2.3347011e-01
   6.2479961e-03   1.4772931e-03   1.4468615e-02  -3.6180398e-03   3.4331773e-03  -1.9816230e-02  -4.5969187e-03  -4.7516209e-02   8.4669997e-03  -6.3917905e-02  -9.3595823e-02  -9.7291357e-03  -3.2774658e-02  -2.8126582e-02   2.1187706e-02  -2.0384493e-02  -6.0216103e-02   2.3142701e-01   2.5036038e-01  -1.0597309e-01   5.3463599e-02  -1.3029683e-01   4.7406051e-02   2.3097438e-01
  -8.2238270e-04  -2.2156642e-03   6.6346055e-03   8.9093892e-03  -2.8655691e-02  -2.6527728e-02  -3.8021798e-03  -2.7193811e-02   9.3210558e-02  -1.5989060e-03   2.1755538e-02  -1.1529336e-01   3.3906148e-02  -7.3211779e-02  -1.3522542e-01   1.3311549e-01   8.1535911e-02   1.0565969e-01   5.2978040e-01   5.0376560e-02  -3.5004665e-01  -5.7123555e-01   2.8982598e-02   3.5878731e-02
  -1.2477314e-02   1.0897134e-02   2.4231489e-04  -7.1724658e-02  -1.4033823e-01  -1.0978730e-02  -1.0005276e-02  -4.8469552e-02   3.2399173e-02   3.0091675e-02  -1.9660137e-01   3.1655917e-01   1.8303454e-01   1.0271771e-01   2.1877759e-01  -9.0986284e-02   5.3484682e-01   3.1664509e-01   2.7884221e-01  -9.9930701e-02  -1.9845317e-01   2.7611133e-01   4.2161055e-01  -1.8900012e-01
  -5.5578958e-03   1.5380739e-02   2.6194794e-02  -5.9662911e-02  -3.7339398e-02   3.6409276e-02   8.8370514e-02  -2.6040634e-02   1.9557801e-01  -1.8878116e-01  -1.4284291e-01   7.7591635e-02  -1.4852666e-01   2.0903775e-01  -2.3475625e-01  -3.0320708e-01   2.9263099e-01  -1.8474505e-01  -2.2287974e-01   2.2818954e-01  -4.7341590e-02  -2.6169346e-01  -5.5767704e-01  -1.2362981e-01
   6.2350074e-03  -3.5291154e-03   1.7742363e-02  -2.9207657e-02  -5.0880853e-03   2.6821015e-02  -8.8434918e-02   1.9892108e-02  -5.6162449e-04  -4.4952823e-02   1.1028080e-02   1.7851388e-02   2.9793348e-02   2.4149689e-02   7.3587578e-02  -9.0449141e-02   1.2166897e-01   2.8949427e-01   1.0439293e-01   5.1818088e-02  -1.1179415e-01  -8.6664601e-02  -1.5554729e-01   1.5231858e-01
  -1.3448471e-02  -1.5006553e-02   3.0770752e-02  -2.6831263e-02  -2.8782168e-03   6.0613397e-02   5.9921059e-02  -6.6799185e-02   1.4061133e-01  -9.8696952e-02   1.9612972e-01  -4.0147238e-02   1.0748738e-01  -2.3547526e-01   1.4350091e-01  -2.3642534e-02  -4.1405063e-01  -3.9089109e-01  -3.7536828e-01   2.3257009e-01   4.3627883e-01  -2.0261313e-01   2.8905981e-01  -6.2460894e-02
   3.9086917e-03  -1.3285006e-02  -4.0193303e-03  -2.3364388e-02  -7.7488831e-02  -2.7737976e-02  -8.0760881e-02  -6.3524468e-02   4.6359568e-02   1.5626597e-01  -1.1369665e-01   1.7341623e-02  -4.7996459e-02   1.2070936e-01   1.1153830e-01  -1.0823520e-01  -2.5448969e-01  -3.4990341e-01  -1.0496185e-01   3.9640557e-01   9.1058576e-02   2.2498086e-02   3.7736984e-01  -1.9350511e-01
  -9.4576846e-03  -2.1742480e-02  -7.8289991e-03  -1.1091198e-02  -1.9887133e-03   7.5540459e-03   1.8641564e-02  -7.5094186e-03   2.0037162e-02   4.2191164e-02   1.7824946e-01  -4.5803023e-02   2.0657968e-01  -1.1139636e-01   7.1796074e-02  -8.2239062e-02  -1.1896070e-01   4.8758397e-02   2.2597682e-02   2.7244865e-01   3.7028429e-02   9.0260211e-02   1.9257924e-01  -1.1816887e-01
   4.2623775e-03  -3.8236382e-03  -1.4897461e-02   5.3298500e-03   3.8435721e-03   1.9975453e-02   1.4407733e-02   3.6853368e-02  -8.0530022e-02   2.1459592e-02   1.5449566e-01   2.1343472e-02   5.3358522e-03  -3.6487246e-05   5.9049941e-02  -9.6533881e-02  -2.2869057e-02  -3.1263733e-01  -3.4813488e-01   1.2649391e-01  -1.9253594e-01   3.1486896e-01  -1.7914748e-02   1.7270576e-01
  -2.6045226e-05   3.3434775e-03   7.9610463e-03  -6.6381675e-03   2.0648995e-02   1.8463102e-02  -6.4869416e-03   2.5646032e-02   2.5908209e-02  -2.9553664e-02  -6.0890786e-02   9.9085882e-03   3.7747304e-02   1.3515276e-02  -8.5322712e-04   3.5676285e-02   8.2150557e-02   6.8802395e-03  -9.7867914e-02   6.6561720e-02   5.8682730e-01   3.6161236e-01   1.7485138e-01  -1.0546348e-01
   7.4731254e-03  -1.6101548e-03   1.3246722e-02   2.9671338e-03  -8.0433433e-03  -1.3377731e-02  -4.2581127e-03  -5.0894197e-02   2.5878701e-03  -5.9860496e-02  -1.0194636e-01   5.4627841e-03  -4.2390966e-02   6.0087770e-03   8.0289887e-03  -1.0342815e-03  -2.5547378e-02   2.2366274e-01   2.2391459e-01  -1.3553741e-01   5.0733066e-02  -1.7076309e-01  -4.2851437e-02   1.3913820e-01
   6.9476903e-04  -4.5155549e-03   9.7973065e-03   1.2545090e-02  -1.7161660e-02  -3.1195524e-02  -1.2367642e-02  -1.2253156e-02   9.1952450e-02   1.5468154e-02   3.3083965e-02  -1.0320025e-01   5.3079147e-02  -6.3448372e-02  -1.2971261e-01   1.4478652e-01   5.5220919e-02   8.3542479e-02   4.6777427e-01   6.1966130e-02  -3.9027246e-01  -5.4369438e-01  -1.0907671e-01  -1.3245036e-02
  -1.1811668e-02   1.1060839e-02  -5.4277215e-04  -6.7225007e-02  -1.3704803e-01  -1.3283604e-02  -1.2702834e-02  -5.0322362e-02   1.9012629e-02   3.0397752e-02  -1.9636780e-01   3.2131134e-01   2.0094548e-01   8.1901835e-02   2.2783789e-01  -7.9724939e-02   5.3950540e-01   3.6489544e-01   2.9515717e-01  -1.2915542e-01  -2.2978921e-01   2.7481816e-01   4.8812396e-01  -2.0958446e-01
  -5.7679897e-03   1.2539364e-02   2.9051909e-02  -5.9160183e-02  -3.3486285e-02   5.2249824e-02   8.2796802e-02  -3.4113450e-02   2.1294625e-01  -1.9076019e-01  -1.4483160e-01   6.4539733e-02  -1.7095228e-01   2.2995620e-01  -2.2670815e-01  -3.3028435e-01   3.0414005e-01  -2.2426237e-01  -2.3810565e-01   2.1597181e-01  -2.2813351e-02  -3.2095970e-01  -5.5988785e-01  -5.4308620e-02
   8.5780674e-03  -2.6247814e-03   1.9027134e-02  -2.8905701e-02  -3.7788710e-03   3.7734661e-02  -9.3033176e-02   1.3794062e-02   9.6312080e-03  -6.0869516e-02   2.8041389e-03   3.0065222e-02   9.4258711e-03   2.4464121e-02   4.7427651e-02  -6.3786358e-02   1.2154529e-01   2.5952053e-01   1.1621689e-01   3.3991433e-02  -1.6405521e-01  -1.4918351e-01  -1.8372840e-01   1.3042771e-01
  -1.4581829e-02  -1.3752948e-02   2.5853352e-02  -2.1440145e-02   7.5455316e-03   5.6979962e-02   7.0804292e-02  -7.3158274e-02   1.4614538e-01  -1.0695073e-01   2.0150421e-01  -3.0027454e-02   8.9936937e-02  -2.2909969e-01   1.6513151e-01   9.0964603e-04  -3.8772325e-01  -3.5266919e-01  -3.7026303e-01   1.5566383e-01   3.9642697e-01  -1.5462913e-01   2.3020275e-01  -2.0895039e-02
   5.1401655e-03  -1.1323810e-02  -4.1664590e-03  -1.9943826e-02  -7.9304575e-02  -2.7027802e-02  -8.6099043e-02  -6.1094789e-02   2.1138913e-02   1.6254791e-01  -1.3262810e-01   1.7922096e-02  -3.8017822e-02   1.2941149e-01   8.5139629e-02  -9.7055234e-02  -2.5649640e-01  -2.9544185e-01  -1.6114146e-01   4.3447523e-01   7.5662393e-02   1.1163025e-02   2.2124841e-01  -1.8943628e-01
  -1.0469014e-02  -2.2283557e-02  -7.8937882e-03  -1.0213840e-02  -1.0020188e-02   5.2232160e-03   1.7383713e-02  -8.0672566e-03   1.2205782e-02   3.0290816e-02   1.7271411e-01  -2.9778974e-02   2.2173926e-01  -1.2146026e-01   8.2922701e-02  -6.7488841e-02  -9.8104567e-02   6.5942196e-02  -9.5467695e-03   2.8849216e-01   3.3077061e-02   1.2061173e-01   1.3829495e-01  -1.2901910e-01
   3.8215658e-03  -4.6206657e-03  -1.2102065e-02   7.3468062e-03   1.1228860e-02   1.0122397e-02   8.1232963e-03   3.5869900e-02  -6.9200880e-02   2.9727790e-03   1.4480158e-01  -2.0039798e-03   1.3356295e-02  -1.6621780e-02   1.0898759e-01  -9.9563976e-02  -6.3468934e-02  -2.9565923e-01  -3.0097948e-01   1.2691407e-01  -1.5860400e-01   2.7925921e-01   4.2855985e-03   1.2575921e-01
  -2.2038282e-03   4.1315693e-03   1.0873694e-02  -2.5745010e-03   2.0644988e-02   1.3690942e-02  -1.2783389e-02   1.6661065e-02   2.1524277e-02  -2.4225372e-02  -6.6632417e-02   5.6785618e-03   1.7262016e-02   2.3996594e-02  -1.2390137e-02   1.4421407e-02   1.2684984e-01   2.6166544e-02  -9.7948772e-02   7.0172547e-02   5.8280138e-01   2.7531261e-01   2.0250749e-01   1.5176329e-02
   7.5678331e-03  -3.5398425e-03   1.0374432e-02   7.3075007e-03  -1.5451725e-02  -5.0111411e-03  -3.0169579e-03  -4.8141715e-02   1.0698826e-03  -4.8099521e-02  -1.0221213e-01   1.7452706e-02  -4.9751996e-02   4.3404074e-02  -6.1602421e-03   2.2827585e-02   5.0393211e-03   2.1406626e-01   1.8202410e-01  -1.5346885e-01   4.9425625e-02  -2.0699043e-01  -1.2573919e-01   5.0362451e-02
   1.9580225e-03  -6.4700843e-03   1.2307292e-02   1.4499701e-02  -8.1933022e-03  -3.4270655e-02  -1.7582248e-02   1.6084667e-03   8.6073954e-02   2.9686791e-02   4.4248303e-02  -8.8656426e-02   7.0730665e-02  -5.2011374e-02  -1.2497956e-01   1.5269904e-01   2.9913509e-02   5.7935076e-02   3.9985511e-01   7.1714405e-02  -4.1570570e-01  -4.8895063e-01  -2.3826873e-01  -6.6394887e-02
  -1.1259392e-02   1.1112024e-02  -9.8633992e-04  -6.2246789e-02  -1.3280768e-01  -1.4768207e-02  -1.5067314e-02  -5.3101089e-02   7.3721981e-03   2.8244658e-02  -1.9734304e-01   3.2295725e-01   2.1634421e-01   6.5914586e-02   2.3479639e-01  -6.7692385e-02   5.3948255e-01   4.0742848e-01   3.0547561e-01  -1.5184375e-01  -2.6021769e-01   2.7641657e-01   5.3848175e-01  -2.2449835e-01
  -5.9460434e-03   9.7987211e-03   3.1434420e-02  -5.7904120e-02  -2.8967033e-02   6.6777266e-02   7.5287638e-02  -4.2075677e-02   2.2822139e-01  -1.9214281e-01  -1.4961264e-01   5.0921225e-02  -1.9089672e-01   2.4975101e-01  -2.1641846e-01  -3.5053193e-01   3.1044656e-01  -2.4817301e-01  -2.4936455e-01   2.0563081e-01   2.1454629e-03  -3.6262114e-01  -5.4545322e-01   1.4368141e-02
   1.0567965e-02  -1.4987695e-03   1.9848717e-02  -2.7520224e-02  -1.6508725e-03   4.4158778e-02  -9.3094438e-02   8.6994168e-03   2.3090174e-02  -7.3056527e-02  -9.7352322e-03   3.8548331e-02  -1.2512839e-02   3.1219439e-02   1.5311969e-02  -3.8514773e-02   1.1901112e-01   2.2912466e-01   1.2101728e-01   1.4678575e-02  -2.0802374e-01  -1.9111626e-01  -1.8639290e-01   1.1123108e-01
  -1.5637878e-02  -1.2943179e-02   2.0929503e-02  -1.7564917e-02   1.5252035e-02   5.4447363e-02   7.6926043e-02  -7.5301958e-02   1.4469199e-01  -1.1495910e-01   2.0596498e-01  -2.2753281e-02   7.7569525e-02  -2.1798839e-01   1.8992360e-01   1.3960462e-02  -3.4472121e-01  -2.9333298e-01  -3.4437469e-01   8.4404075e-02   3.4489119e-01  -1.1332018e-01   1.6233398e-01   3.6651189e-02
   5.8242990e-03  -8.6816794e-03  -3.9078751e-03  -1.5930872e-02  -8.0100034e-02  -2.7251647e-02  -8.8090907e-02  -5.7392504e-02  -4.8133514e-03   1.6587488e-01  -1.4923459e-01   2.5098670e-02  -2.8790834e-02   1.3296633e-01   6.1273803e-02  -8.0689657e-02  -2.4469029e-01  -2.3945096e-01  -2.0645169e-01   4.4476455e-01   4.9268324e-02   4.8180614e-03   5.2144364e-02  -1.7645208e-01
  -1.0521420e-02  -2.1194945e-02  -7.5089943e-03  -6.1739481e-03  -1.4586364e-02   4.4563831e-04   1.7449059e-02  -5.6512942e-03   3.8364173e-03   1.1043721e-02   1.5145874e-01  -1.4971988e-02   2.1429195e-01  -1.2620324e-01   7.8995430e-02  -4.9868009e-02  -7.3303105e-02   7.8861443e-02  -4.3718279e-02   2.7924183e-01   2.4980966e-02   1.3537583e-01   8.7879410e-02  -1.2293822e-01
   3.5624149e-03  -4.6854838e-03  -9.9396038e-03   6.6608119e-03   1.6842662e-02   2.3635720e-03   3.3632026e-03   3.2356878e-02  -5.5253163e-02  -1.2970326e-02   1.3076317e-01  -2.3362293e-02   1.6958139e-02  -3.8797906e-02   1.5269709e-01  -9.7492447e-02  -1.0556867e-01  -2.6569107e-01  -2.4342338e-01   1.3224513e-01  -1.3102631e-01   2.4751163e-01   4.4334916e-02   6.9419427e-02
  -4.1167948e-03   5.1154333e-03   1.2400353e-02  -1.0115719e-04   2.0438778e-02   9.7358182e-03  -1.7008573e-02   8.6915671e-03   1.7133771e-02  -1.8582726e-02  -7.5569158e-02  -1.2117635e-03  -4.6580166e-03   2.6446307e-02  -2.1609054e-02  -1.0320603e-02   1.6443065e-01   4.7465786e-02  -8.8907774e-02   6.5068644e-02   5.6413609e-01   2.0342884e-01   2.2484058e-01   1.2430389e-01
   6.8755599e-03  -4.2134788e-03   6.4947012e-03   9.1714983e-03  -1.9064053e-02   4.5878628e-03  -2.7037076e-04  -4.0397706e-02   1.9011188e-03  -3.0654614e-02  -9.4468937e-02   2.6882218e-02  -5.4152588e-02   7.9071355e-02  -2.4207087e-02   4.5804947e-02   3.2324465e-02   2.0135595e-01   1.2960686e-01  -1.6163527e-01   4.9763549e-02  -2.3107113e-01  -1.9010684e-01  -1.6368286e-02
   3.0040677e-03  -8.0931669e-03   1.4210870e-02   1.5176740e-02  -2.3772723e-03  -3.5492701e-02  -1.9869946e-02   1.4099991e-02   7.6253131e-02   4.0157017e-02   5.4464940e-02  -7.2491515e-02   8.6545525e-02  -3.9935456e-02  -1.2154433e-01   1.5796662e-01   9.6062722e-03   2.8993958e-02   3.3107671e-01   7.7731958e-02  -4.2807619e-01  -4.1543072e-01  -3.5277580e-01  -1.2221932e-01
  -1.0849173e-02   1.1067800e-02  -1.0588131e-03  -5.6861904e-02  -1.2757689e-01  -1.5422984e-02  -1.6871375e-02  -5.6559070e-02  -2.6132675e-03   2.3541528e-02  -1.9860174e-01   3.2242528e-01   2.3005571e-01   5.4058667e-02   2.4036379e-01  -5.4386651e-02   5.3519863e-01   4.4480342e-01   3.1120412e-01  -1.7012073e-01  -2.8923494e-01   2.8152317e-01   5.7062875e-01  -2.3361696e-01
  -6.0879186e-03   7.2775201e-03   3.3340032e-02  -5.6149096e-02  -2.3794933e-02   7.9907005e-02   6.6790135e-02  -5.0010670e-02   2.4221897e-01  -1.9332772e-01  -1.5683283e-01   3.7278799e-02  -2.0887787e-01   2.6816950e-01  -2.0405118e-01  -3.6375059e-01   3.1011532e-01  -2.5920277e-01  -2.5709440e-01   1.9631179e-01   2.5181692e-02  -3.8715454e-01  -5.1532808e-01   8.1069760e-02
   1.2152014e-02  -2.1170968e-04   2.0221109e-02  -2.5525899e-02   1.3438276e-03   4.6416027e-02  -8.9247982e-02   5.1336432e-03   3.8711412e-02  -8.0448487e-02  -2.5293269e-02   4.2155022e-02  -3.5124260e-02   4.4926301e-02  -2.1317617e-02  -1.8577340e-02   1.1525808e-01   2.0105988e-01   1.1747917e-01  -4.1633692e-03  -2.4136799e-01  -2.1245960e-01  -1.6573394e-01   9.7146327e-02
  -1.6508140e-02  -1.2554986e-02   1.6484933e-02  -1.5358377e-02   2.0056910e-02   5.2927984e-02   7.8493410e-02  -7.2998349e-02   1.3645375e-01  -1.2341208e-01   2.0897630e-01  -1.8391674e-02   7.0980792e-02  -2.0402871e-01   2.1501714e-01   1.5797387e-02  -2.8705957e-01  -2.1473392e-01  -3.0201936e-01   2.1307877e-02   2.8325307e-01  -7.9718259e-02   8.9741304e-02   1.0339867e-01
   5.9658775e-03  -5.5801932e-03  -3.5323727e-03  -1.1247568e-02  -7.9618379e-02  -2.8852776e-02  -8.6278476e-02  -5.1720740e-02  -2.9652507e-02   1.6511104e-01  -1.6369926e-01   3.6579950e-02  -2.2147790e-02   1.3223074e-01   3.8489531e-02  -6.2933655e-02  -2.1985972e-01  -1.8411647e-01  -2.3853907e-01   4.3284708e-01   1.1544001e-02   4.2175949e-03  -1.1881833e-01  -1.5225249e-01
  -9.6135938e-03  -1.8863506e-02  -6.8765023e-03   3.9339842e-04  -1.5080155e-02  -6.2994230e-03   1.9420579e-02  -2.0897681e-04  -3.3378513e-03  -1.3077958e-02   1.1879967e-01  -4.6010923e-03   1.8699007e-01  -1.2457572e-01   5.8790585e-02  -3.3814268e-02  -4.9302631e-02   8.6859659e-02  -7.8601577e-02   2.5257544e-01   1.4130795e-02   1.3347453e-01   4.7222387e-02  -1.0410635e-01
   3.5675721e-03  -4.2328165e-03  -8.4149815e-03   3.6255082e-03   2.0011186e-02  -3.2763162e-03   2.0784274e-04   2.5577323e-02  -4.0858270e-02  -2.6641498e-02   1.1296407e-01  -4.0273122e-02   1.5907369e-02  -6.5438341e-02   1.8677360e-01  -9.2822676e-02  -1.4736351e-01  -2.2613884e-01  -1.7790709e-01   1.3981770e-01  -1.1400384e-01   2.2328401e-01   9.8771343e-02   1.0926467e-02
  -5.6952343e-03   6.1889125e-03   1.2806744e-02   1.0076669e-03   1.9883529e-02   6.6776180e-03  -1.8682057e-02   1.3864601e-03   1.2281344e-02  -1.4032838e-02  -8.6791733e-02  -1.0305006e-02  -2.6538422e-02   2.2086536e-02  -2.7178562e-02  -3.8641966e-02   1.9398389e-01   6.9033906e-02  -7.2593267e-02   5.0615416e-02   5.3421223e-01   1.5059025e-01   2.3643441e-01   2.1794743e-01
   5.7517899e-03  -3.7839880e-03   2.3620620e-03   8.9675548e-03  -1.9588268e-02   1.4238657e-02   3.9010194e-03  -2.9233544e-02   3.3333391e-03  -1.0389455e-02  -8.0018446e-02   3.4146923e-02  -5.5160540e-02   1.0982173e-01  -4.6338360e-02   6.3839849e-02   5.8175023e-02   1.8440172e-01   7.2026514e-02  -1.6321853e-01   5.1740081e-02  -2.3991155e-01  -2.3043221e-01  -5.0638157e-02
   3.8546672e-03  -9.4368588e-03   1.5578930e-02   1.5045160e-02   8.8382138e-05  -3.4739673e-02  -1.9930995e-02   2.5025919e-02   6.3365101e-02   4.6466907e-02   6.3297426e-02  -5.5315691e-02   1.0009032e-01  -2.7910774e-02  -1.1925690e-01   1.6201693e-01  -2.5802643e-03  -2.9376889e-03   2.6482926e-01   7.8880164e-02  -4.2924295e-01  -3.3219429e-01  -4.4791328e-01  -1.7931607e-01
  -1.0601852e-02   1.0935119e-02  -7.8718395e-04  -5.1128348e-02  -1.2130815e-01  -1.5246117e-02  -1.7848756e-02  -6.0401306e-02  -1.0937244e-02   1.6199556e-02  -1.9937023e-01   3.2039394e-01   2.4257480e-01   4.5699710e-02   2.4497554e-01  -3.9663060e-02   5.2692538e-01   4.7743279e-01   3.1377591e-01  -1.8551170e-01  -3.1637717e-01   2.9047631e-01   5.8357128e-01  -2.3669412e-01
  -6.1843168e-03   5.0777930e-03   3.4742346e-02  -5.4115927e-02  -1.8016463e-02   9.1597443e-02   5.8172993e-02  -5.7964542e-02   2.5558408e-01  -1.9458255e-01  -1.6603675e-01   2.4161052e-02  -2.2522153e-01   2.8501164e-01  -1.8985511e-01  -3.6999123e-01   3.0223276e-01  -2.6004766e-01  -2.6151140e-01   1.8733637e-01   4.4045400e-02  -3.9537169e-01  -4.7084886e-01   1.4500414e-01
   1.3317597e-02   1.1864109e-03   2.0252591e-02  -2.3426201e-02   5.1448194e-03   4.5223949e-02  -8.2376922e-02   3.4292032e-03   5.5133571e-02  -8.2559031e-02  -4.2320393e-02   4.0436512e-02  -5.7443587e-02   6.4925911e-02  -6.1153982e-02  -6.7135203e-03   1.1149661e-01   1.7745564e-01   1.0473154e-01  -2.1114447e-02  -2.6244257e-01  -2.1472262e-01  -1.2618452e-01   8.9034466e-02
  -1.7103106e-02  -1.2523857e-02   1.2887141e-02  -1.4746207e-02   2.2092480e-02   5.2239994e-02   7.6188291e-02  -6.6424779e-02   1.2224706e-01  -1.3294008e-01   2.1010527e-01  -1.6575976e-02   7.0055923e-02  -1.8934433e-01   2.3705467e-01   7.9047490e-03  -2.1736679e-01  -1.2039257e-01  -2.4815245e-01  -3.2350334e-02   2.1325378e-01  -5.3683290e-02   1.6853670e-02   1.7189622e-01
   5.6350052e-03  -2.2887356e-03  -3.3892687e-03  -5.8666896e-03  -7.7550800e-02  -3.2160972e-02  -8.0315667e-02  -4.3323663e-02  -5.1540756e-02   1.5957556e-01  -1.7621046e-01   4.8855080e-02  -2.0341846e-02   1.2867432e-01   1.4559404e-02  -4.8565236e-02  -1.8389727e-01  -1.3160629e-01  -2.5646500e-01   4.0655771e-01  -3.7004211e-02   8.9323558e-03  -2.8002561e-01  -1.1522602e-01
  -7.8419229e-03  -1.5698297e-02  -6.1152097e-03   8.6384393e-03  -1.1397711e-02  -1.4273496e-02   2.3326343e-02   7.8055703e-03  -8.2468662e-03  -3.8848991e-02   7.9761622e-02  -5.1866730e-04   1.4456602e-01  -1.1621261e-01   2.3523750e-02  -2.1988573e-02  -2.9985728e-02   8.9764423e-02  -1.1295659e-01   2.1553804e-01   2.6400162e-03   1.1587082e-01   1.8682151e-02  -7.8697168e-02
   3.8694725e-03  -3.5579249e-03  -7.3989724e-03  -9.8580627e-04   2.0368280e-02  -7.1737631e-03  -1.7595011e-03   1.5152231e-02  -2.7506431e-02  -3.8597585e-02   9.2053143e-02  -5.1542342e-02   1.0612438e-02  -9.3765416e-02   2.1008092e-01  -8.6774957e-02  -1.8682670e-01  -1.8038924e-01  -1.0704357e-01   1.4674933e-01  -1.1018778e-01   2.0621023e-01   1.6004299e-01  -4.6191811e-02
  -6.9016053e-03   7.2162113e-03   1.2407624e-02   1.1186388e-03   1.9034318e-02   4.4126827e-03  -1.7702190e-02  -5.3376579e-03   6.8534597e-03  -1.1577402e-02  -9.9178367e-02  -2.1030707e-02  -4.6925969e-02   1.2944943e-02  -2.7702837e-02  -7.0014571e-02   2.1492117e-01   8.9300367e-02  -5.1549162e-02   2.7114081e-02   4.9642737e-01   1.1790434e-01   2.3191337e-01   2.9250830e-01
   4.4969080e-03  -2.5575194e-03  -1.2881162e-03   7.5197052e-03  -1.7895568e-02   2.2468386e-02   8.8232129e-03  -1.6300306e-02   4.3119077e-03   9.5365659e-03  -6.0955559e-02   3.9154563e-02  -5.2731096e-02   1.3436034e-01  -7.0247365e-02   7.4763422e-02   8.4943017e-02   1.6269646e-01   1.4538202e-02  -1.6154150e-01   5.4986862e-02  -2.3504738e-01  -2.4609068e-01  -5.0773866e-02
   4.5217473e-03  -1.0565795e-02   1.6466244e-02   1.4542295e-02  -6.0062739e-04  -3.1956246e-02  -1.8581357e-02   3.4342025e-02   4.8432111e-02   4.8801873e-02   7.0674923e-02  -3.7480329e-02   1.1084502e-01  -1.6575638e-02  -1.1772059e-01   1.6633039e-01  -4.6516319e-03  -3.7244726e-02   2.0290884e-01   7.5021978e-02  -4.2083166e-01  -2.4801242e-01  -5.1965700e-01  -2.3580410e-01
  -1.0526390e-02   1.0708574e-02  -2.5813064e-04  -4.5086455e-02  -1.1393055e-01  -1.4249272e-02  -1.7676356e-02  -6.4274750e-02  -1.7441090e-02   6.1229302e-03  -1.9904309e-01   3.1714857e-01   2.5398024e-01   4.0303659e-02   2.4864240e-01  -2.3833723e-02   5.1470829e-01   5.0550598e-01   3.1448702e-01  -1.9875870e-01  -3.4124540e-01   3.0321346e-01   5.7759068e-01  -2.3339208e-01
  -6.2233807e-03   3.2797995e-03   3.5604796e-02  -5.1995599e-02  -1.1731519e-02   1.0185258e-01   5.0159546e-02  -6.5942048e-02   2.6874113e-01  -1.9602343e-01  -1.7667974e-01   1.2123510e-02  -2.3999651e-01   3.0009402e-01  -1.7408510e-01  -3.6951788e-01   2.8644053e-01  -2.5321260e-01  -2.6258309e-01   1.7822527e-01   5.6779273e-02  -3.8839794e-01  -4.1372333e-01   2.0575378e-01
   1.4080182e-02   2.6495418e-03   2.0110451e-02  -2.1672843e-02   9.5725421e-03   4.1540759e-02  -7.3500925e-02   3.6910633e-03   7.0848561e-02  -7.9441651e-02  -5.9195456e-02   3.3672579e-02  -7.8392159e-02   8.9490270e-02  -1.0295016e-01  -4.2070023e-03   1.0896298e-01   1.5975808e-01   8.2646958e-02  -3.5542853e-02  -2.7041837e-01  -2.0037849e-01  -7.3686798e-02   8.6385938e-02
  -1.7360219e-02  -1.2762675e-02   1.0352940e-02  -1.5450181e-02   2.1710697e-02   5.2140333e-02   7.0994946e-02  -5.6119571e-02   1.0333795e-01  -1.4391378e-01   2.0906801e-01  -1.6575848e-02   7.4248358e-02  -1.7602046e-01   2.5265863e-01  -7.3045399e-03  -1.3883375e-01  -1.5114302e-02  -1.8776569e-01  -7.6111933e-02   1.3690867e-01  -3.4129508e-02  -5.2100804e-02   2.3489800e-01
   4.9523367e-03   9.0483874e-04  -3.7964508e-03   1.4993609e-04  -7.3633309e-02  -3.7352726e-02  -7.0062634e-02  -3.1534809e-02  -6.8847404e-02   1.4915504e-01  -1.8687631e-01   5.7912419e-02  -2.5604604e-02   1.2401905e-01  -1.3027453e-02  -4.2472113e-02  -1.3943436e-01  -8.4029330e-02  -2.6081944e-01   3.7464970e-01  -9.4748592e-02   1.7578041e-02  -4.2059935e-01  -6.5287826e-02
  -5.3889309e-03  -1.2086042e-02  -5.2674181e-03   1.7602657e-02  -3.8830832e-03  -2.2559711e-02   2.8726124e-02   1.7504232e-02  -1.0438237e-02  -6.2739854e-02   3.9524782e-02  -3.2577992e-03   9.3023606e-02  -1.0143258e-01  -2.3458596e-02  -1.5181827e-02  -1.8191792e-02   8.7724402e-02  -1.4567089e-01   1.7381108e-01  -7.0995201e-03   8.5447397e-02   1.4015594e-03  -5.3544277e-02
   4.4351011e-03  -2.9482552e-03  -6.7390152e-03  -6.2470744e-03   1.7945479e-02  -9.8837048e-03  -3.1935196e-03   1.2579534e-03  -1.5889723e-02  -4.9257393e-02   6.8985391e-02  -5.7113875e-02   1.9247133e-03  -1.2001711e-01   2.2313915e-01  -7.9440485e-02  -2.2214969e-01  -1.3153537e-01  -3.3716433e-02   1.5089828e-01  -1.2056565e-01   1.9314458e-01   2.1850557e-01  -1.0107699e-01
  -7.7301390e-03   8.0670915e-03   1.1507819e-02   6.3808357e-04   1.8112855e-02   2.7333045e-03  -1.4232641e-02  -1.1265355e-02   1.0899746e-03  -1.1673489e-02  -1.1142761e-01  -3.2733010e-02  -6.4504719e-02   1.4781047e-03  -2.2022586e-02  -1.0337182e-01   2.2684459e-01   1.0695459e-01  -2.8722371e-02  -4.0340284e-03   4.5423280e-01   1.0368733e-01   2.0694671e-01   3.4521171e-01
   3.3210743e-03  -8.9025558e-04  -3.8719233e-03   5.7882241e-03  -1.4795755e-02   2.7823482e-02   1.3479765e-02  -3.0159637e-03   4.6153903e-03   2.6279635e-02  -3.9637741e-02   4.1389826e-02  -4.7279407e-02   1.5286266e-01  -9.1933753e-02   7.8286580e-02   1.1474766e-01   1.3654175e-01  -3.8279993e-02  -1.5904863e-01   5.8941261e-02  -2.2133640e-01  -2.3974559e-01  -2.2198636e-02
   5.0152901e-03  -1.1540064e-02   1.6888657e-02   1.4004698e-02  -3.9303979e-03  -2.7103102e-02  -1.6610664e-02   4.2164276e-02   3.2531571e-02   4.7954229e-02   7.6846165e-02  -1.9047403e-02   1.1826143e-01  -6.7534250e-03  -1.1666445e-01   1.7214493e-01   4.1304200e-03  -7.3004075e-02   1.4570657e-01   6.7057512e-02  -4.0395686e-01  -1.7054931e-01  -5.6437063e-01  -2.8902635e-01
  -1.0617775e-02   1.0370556e-02   3.9067008e-04  -3.8762302e-02  -1.0535001e-01  -1.2456486e-02  -1.5981228e-02  -6.7776063e-02  -2.1800916e-02  -6.7798809e-03  -1.9718416e-01   3.1253454e-01   2.6392557e-01   3.7436913e-02   2.5089276e-01  -7.6632212e-03   4.9835629e-01   5.2895468e-01   3.1435783e-01  -2.0978377e-01  -3.6349571e-01   3.1920211e-01   5.5426753e-01  -2.2338198e-01
  -6.1929485e-03   1.9392353e-03   3.5893488e-02  -4.9952178e-02  -5.0996217e-03   1.1071940e-01   4.3282426e-02  -7.3906226e-02   2.8187724e-01  -1.9761889e-01  -1.8815002e-01   1.7132073e-03  -2.5299655e-01   3.1322073e-01  -1.5695576e-01  -3.6276031e-01   2.6292869e-01  -2.4088784e-01  -2.6004291e-01   1.6869273e-01   6.1858877e-02  -3.6762453e-01  -3.4595936e-01   2.6308915e-01
   1.4470456e-02   4.1271022e-03   1.9978529e-02  -2.0596106e-02   1.4327828e-02   3.6414998e-02  -6.3674436e-02   5.7873200e-03   8.4323343e-02  -7.1609568e-02  -7.4386094e-02   2.2806143e-02  -9.6728086e-02   1.1605110e-01  -1.4540879e-01  -1.0791846e-02   1.0885496e-01   1.4876546e-01   5.2111058e-02  -4.7642364e-02  -2.6534350e-01  -1.7241191e-01  -1.4990220e-02   8.7635185e-02
  -1.7248653e-02  -1.3177808e-02   8.9290414e-03  -1.7016291e-02   1.9405237e-02   5.2352520e-02   6.4044087e-02  -4.2908371e-02   8.1304646e-02  -1.5631806e-01   2.0573857e-01  -1.7450463e-02   8.2773233e-02  -1.6581994e-01   2.5885329e-01  -2.6814381e-02  -5.5213070e-02   9.5380342e-02  -1.2541794e-01  -1.0988730e-01   5.6614002e-02  -1.9380048e-02  -1.1338276e-01   2.8616962e-01
   4.0698057e-03   3.7275940e-03  -4.9562265e-03   6.6234764e-03  -6.7750966e-02  -4.4413587e-02  -5.5718992e-02  -1.5949585e-02  -8.0405684e-02   1.3439749e-01  -1.9566845e-01   6.0064980e-02  -3.9624500e-02   1.1987046e-01  -4.6404475e-02  -4.8667407e-02  -8.9374167e-02  -4.3265499e-02  -2.5356757e-01   3.4530584e-01  -1.5880044e-01   2.8209299e-02  -5.3166795e-01  -4.4844592e-03
  -2.5056830e-03  -8.3620374e-03  -4.3235226e-03   2.6327611e-02   6.7605626e-03  -3.0166519e-02   3.4872907e-02   2.7700657e-02  -9.9314484e-03  -8.1423024e-02   2.8995078e-03  -1.2282155e-02   3.8813760e-02  -8.1170726e-02  -7.7245776e-02  -1.2588341e-02  -1.5623953e-02   8.1036318e-02  -1.7580508e-01   1.3159166e-01  -1.2926677e-02   4.6648704e-02  -7.9644030e-03  -3.4729117e-02
   5.1747521e-03  -2.6149960e-03  -6.3464628e-03  -1.1320484e-02   1.3177380e-02  -1.1886666e-02  -4.6937844e-03  -1.5292073e-02  -6.0174686e-03  -5.8551033e-02   4.5188908e-02  -5.7719800e-02  -9.0442866e-03  -1.4033062e-01   2.2717548e-01  -7.0248343e-02  -2.5213914e-01  -8.2289505e-02   3.8850863e-02   1.5143504e-01  -1.4429039e-01   1.7984453e-01   2.6455407e-01  -1.5384260e-01
  -8.2005996e-03   8.6444139e-03   1.0357885e-02  -7.3202083e-05   1.7447081e-02   1.4043788e-03  -8.5876083e-03  -1.5904621e-02  -4.4827978e-03  -1.4172026e-02  -1.2211584e-01  -4.4667452e-02  -7.8190901e-02  -9.8229241e-03  -9.5282411e-03  -1.3728730e-01   2.2947422e-01   1.2096221e-01  -7.1585165e-03  -4.0347788e-02   4.1114009e-01   1.0434512e-01   1.5910172e-01   3.7461967e-01
   2.3407295e-03   8.9572040e-04  -5.0609955e-03   4.6073615e-03  -1.0894225e-02   2.9232816e-02   1.6838835e-02   9.6421594e-03   4.7009606e-03   3.7864860e-02  -1.8191018e-02   4.0232193e-02  -3.9669330e-02   1.6621480e-01  -1.0702516e-01   7.5544775e-02   1.4876319e-01   1.0696660e-01  -8.3052372e-02  -1.5670285e-01   6.3266705e-02  -2.0500137e-01  -2.1548502e-01   2.5348897e-02
   5.3505181e-03  -1.2406457e-02   1.6820664e-02   1.3633754e-02  -9.1715639e-03  -2.0146488e-02  -1.4681252e-02   4.8733195e-02   1.6697268e-02   4.5219803e-02   8.2268252e-02   1.9238881e-04   1.2183888e-01   4.3104620e-04  -1.1616823e-01   1.8020238e-01   2.3265983e-02  -1.0898087e-01   9.2515728e-02   5.6758987e-02  -3.7911029e-01  -1.0577171e-01  -5.7879414e-01  -3.3552116e-01
  -1.0857155e-02   9.8939076e-03   9.8906530e-04  -3.2177041e-02  -9.5465520e-02  -9.8960529e-03  -1.2374377e-02  -7.0478912e-02  -2.3560733e-02  -2.2565512e-02  -1.9351387e-01   3.0601164e-01   2.7171022e-01   3.6732689e-02   2.5082213e-01   7.7432897e-03   4.7749914e-01   5.4747183e-01   3.1404592e-01  -2.1780345e-01  -3.8280385e-01   3.3743789e-01   5.1632165e-01  -2.0648829e-01
  -6.0826156e-03   1.0863829e-03   3.5588428e-02  -4.8126538e-02   1.6620578e-03   1.1828212e-01   3.7855556e-02  -8.1783361e-02   2.9494724e-01  -1.9920878e-01  -1.9979395e-01  -6.5472975e-03  -2.6374949e-01   3.2415807e-01  -1.3861143e-01  -3.5025381e-01   2.3240677e-01  -2.2485141e-01  -2.5342591e-01   1.5860743e-01   5.8279128e-02  -3.3463450e-01  -2.6975863e-01   3.1677290e-01
   1.4521843e-02   5.5570853e-03   2.0013513e-02  -2.0355229e-02   1.9003200e-02   3.0853450e-02  -5.3904755e-02   9.3649464e-03   9.4125467e-02  -5.9922743e-02  -8.6575748e-02   9.3037784e-03  -1.1101250e-01   1.4152182e-01  -1.8705410e-01  -2.4703097e-02   1.1220320e-01   1.4473076e-01   1.5215729e-02  -5.8285817e-02  -2.4812601e-01  -1.3398269e-01   4.2990021e-02   9.0546645e-02
  -1.6770924e-02  -1.3679841e-02   8.4910373e-03  -1.8852621e-02   1.5750755e-02   5.2588148e-02   5.6473870e-02  -2.7813622e-02   5.7918989e-02  -1.6970178e-01   2.0012788e-01  -1.8245623e-02   9.4727446e-02  -1.5993126e-01   2.5342032e-01  -4.7341510e-02   2.9195802e-02   2.0482116e-01  -6.4915146e-02  -1.3357617e-01  -2.4786389e-02  -7.5894937e-03  -1.6398407e-01   3.2113253e-01
   3.1502304e-03   5.9537528e-03  -6.8974238e-03   1.3252454e-02  -6.0010964e-02  -5.3116081e-02  -3.7932540e-02   3.4197691e-03  -8.5730225e-02   1.1653705e-01  -2.0239900e-01   5.2690422e-02  -6.3086243e-02   1.1741585e-01  -8.6695267e-02  -6.9411684e-02  -3.6476850e-02  -1.0758181e-02  -2.3770397e-01   3.2479864e-01  -2.2506804e-01   3.8794009e-02  -6.0737868e-01   6.2785865e-02
   5.1069289e-04  -4.7954300e-03  -3.2547499e-03   3.3956109e-02   1.9567790e-02  -3.6144707e-02   4.0902265e-02   3.7090746e-02  -7.0441404e-03  -9.2273045e-02  -2.6149421e-02  -2.6326495e-02  -1.1995296e-02  -5.6873994e-02  -1.3207257e-01  -1.2333732e-02  -2.2757499e-02   7.0043971e-02  -2.0259003e-01   9.1748942e-02  -1.3403615e-02   4.9047333e-03  -1.4308225e-02  -2.6306129e-02
   5.9674974e-03  -2.6561241e-03  -6.2420295e-03  -1.5624711e-02   6.8243580e-03  -1.3372756e-02  -6.5560556e-03  -3.3105573e-02   2.4985026e-03  -6.5730828e-02   2.2581450e-02  -5.4422718e-02  -2.1064318e-02  -1.5162569e-01   2.2315598e-01  -5.8568569e-02  -2.7648023e-01  -3.5017285e-02   1.0710039e-01   1.4892930e-01  -1.7857937e-01   1.6263508e-01   2.9040648e-01  -2.0386130e-01
  -8.3491146e-03   8.9008782e-03   9.1295827e-03  -7.5657136e-04   1.7393998e-02   2.1844716e-04  -1.1403081e-03  -1.8564079e-02  -9.1730629e-03  -1.8353432e-02  -1.2978961e-01  -5.5997614e-02  -8.7198821e-02  -1.8773865e-02   9.6089485e-03  -1.7018742e-01   2.2265574e-01   1.3053673e-01   1.0305201e-02  -7.8474299e-02   3.7064887e-01   1.1524606e-01   8.8406354e-02   3.8102349e-01
   1.5990554e-03   2.5623249e-03  -4.8352389e-03   4.4975727e-03  -6.5435447e-03   2.6334810e-02   1.8162418e-02   2.1197814e-02   5.3246254e-03   4.3559910e-02   1.8291378e-03   3.5399121e-02  -3.1103064e-02   1.7516088e-01  -1.1218795e-01   6.8394401e-02   1.8664872e-01   7.5467377e-02  -1.1800091e-01  -1.5393387e-01   6.8341723e-02  -1.9157024e-01  -1.7726627e-01   8.0907236e-02
   5.5514788e-03  -1.3195833e-02   1.6211521e-02   1.3494621e-02  -1.5492564e-02  -1.1096871e-02  -1.3278940e-02   5.4345554e-02   1.8479762e-03   4.2189715e-02   8.7446200e-02   2.0624882e-02   1.2120287e-01   3.5920429e-03  -1.1668368e-01   1.9059461e-01   5.1188558e-02  -1.4364358e-01   4.1944332e-02   4.6456488e-02  -3.4626328e-01  -5.7654065e-02  -5.6027747e-01  -3.7131375e-01
  -1.1213926e-02   9.2466407e-03   1.3586742e-03  -2.5358899e-02  -8.4194751e-02  -6.5876516e-03  -6.5027909e-03  -7.1977015e-02  -2.2200470e-02  -4.1215571e-02  -1.8788702e-01   2.9678612e-01   2.7641093e-01   3.7836752e-02   2.4723217e-01   2.1133920e-02   4.5168940e-01   5.6057641e-01   3.1381788e-01  -2.2156106e-01  -3.9882038e-01   3.5650994e-01   4.6731601e-01  -1.8283615e-01
  -5.8856206e-03   7.2672771e-04   3.4692179e-02  -4.6641073e-02   8.2851832e-03   1.2465485e-01   3.3961905e-02  -8.9473032e-02   3.0769251e-01  -2.0053188e-01  -2.1093988e-01  -1.2168835e-02  -2.7154117e-01   3.3261296e-01  -1.1910543e-01  -3.3257116e-01   1.9606100e-01  -2.0639302e-01  -2.4211052e-01   1.4792644e-01   4.5586903e-02  -2.9110743e-01  -1.8739169e-01   3.6637503e-01
   1.4261165e-02   6.8630940e-03   2.0303676e-02  -2.0910996e-02   2.3122023e-02   2.5714720e-02  -4.5069241e-02   1.3898660e-02   9.9080093e-02  -4.5474914e-02  -9.4761479e-02  -5.0827875e-03  -1.1966489e-01   1.6268975e-01  -2.2618854e-01  -4.2906280e-02   1.1964470e-01   1.4745046e-01  -2.4719956e-02  -6.8687160e-02  -2.2044778e-01  -8.8218196e-02   9.3807907e-02   9.2659550e-02
  -1.5962408e-02  -1.4187897e-02   8.7653428e-03  -2.0284154e-02   1.1343714e-02   5.2565443e-02   4.9291195e-02  -1.1964346e-02   3.5007128e-02  -1.8318118e-01   1.9235195e-01  -1.8150974e-02   1.0919888e-01  -1.5880283e-01   2.3523385e-01  -6.5605217e-02   1.0967764e-01   3.0679791e-01  -9.0981394e-03  -1.4687505e-01  -1.0399482e-01   2.8541423e-03  -2.0187478e-01   3.3725386e-01
   2.3486530e-03   7.4309577e-03  -9.4548586e-03   1.9635005e-02  -5.0761098e-02  -6.3022695e-02  -1.7837548e-02   2.6042459e-02  -8.5125390e-02   9.7419436e-02  -2.0673094e-01   3.4741320e-02  -9.5376454e-02   1.1724068e-01  -1.3356819e-01  -1.0461556e-01   1.6898075e-02   1.2655206e-02  -2.1680026e-01   3.1653477e-01  -2.8852389e-01   4.7673531e-02  -6.4544924e-01   1.3000147e-01
   3.3433562e-03  -1.5869618e-03  -2.0458859e-03   3.9816073e-02   3.3401476e-02  -3.9706048e-02   4.6012117e-02   4.4456087e-02  -2.2457292e-03  -9.3792986e-02  -4.4895774e-02  -4.3737749e-02  -5.4451002e-02  -3.0378064e-02  -1.8207235e-01  -1.2143106e-02  -3.8721514e-02   5.5159463e-02  -2.2535132e-01   5.6135933e-02  -8.2109093e-03  -3.4111723e-02  -2.3065079e-02  -2.9368257e-02
   6.6929544e-03  -3.0531038e-03  -6.5509698e-03  -1.8906387e-02  -1.6951282e-04  -1.4125199e-02  -8.6319939e-03  -5.0405708e-02   1.0087976e-02  -6.9404079e-02   3.3995278e-03  -4.8187162e-02  -3.2880381e-02  -1.5228166e-01   2.1110630e-01  -4.4259940e-02  -2.9578747e-01   8.2004982e-03   1.6727532e-01   1.4497312e-01  -2.1884670e-01   1.3966060e-01   2.9121969e-01  -2.4859785e-01
  -8.2191958e-03   8.8444784e-03   7.9122801e-03  -1.2786613e-03   1.8257110e-02  -9.8361827e-04   7.7287393e-03  -1.8477411e-02  -1.2267355e-02  -2.3064160e-02  -1.3309151e-01  -6.5819548e-02  -9.1075448e-02  -2.3730123e-02   3.4361479e-02  -2.0053793e-01   2.0645569e-01   1.3509722e-01   2.1343132e-02  -1.1455119e-01   3.3605683e-01   1.3146113e-01  -2.4514611e-03   3.6657942e-01
   1.0980264e-03   3.9673328e-03  -3.4719118e-03   5.5843963e-03  -1.8818501e-03   1.9679004e-02   1.7214635e-02   3.1580593e-02   7.0596383e-03   4.3974172e-02   1.9547607e-02   2.7349034e-02  -2.2923843e-02   1.7960719e-01  -1.0622412e-01   5.8691180e-02   2.2625189e-01   4.3696209e-02  -1.4310807e-01  -1.4912259e-01   7.5563144e-02  -1.8421730e-01  -1.2804460e-01   1.3492167e-01
   5.6494799e-03  -1.3923311e-02   1.5014357e-02   1.3540330e-02  -2.2067272e-02  -9.1882488e-05  -1.2714161e-02   5.9271807e-02  -1.1233816e-02   4.0468207e-02   9.2753283e-02   4.2636938e-02   1.1617352e-01   1.2797979e-03  -1.1884709e-01   2.0274042e-01   8.5573298e-02  -1.7519257e-01  -7.5944524e-03   3.8646053e-02  -3.0517828e-01  -2.8181522e-02  -5.0718392e-01  -3.9248621e-01
  -1.1649309e-02   8.3979670e-03   1.3381889e-03  -1.8354360e-02  -7.1500999e-02  -2.5279865e-03   1.8924789e-03  -7.1935898e-02  -1.7221267e-02  -6.2598814e-02  -1.8026475e-01   2.8398597e-01   2.7704547e-01   4.0348340e-02   2.3882675e-01   3.1346507e-02   4.2051979e-01   5.6770844e-01   3.1357735e-01  -2.1962576e-01  -4.1113312e-01   3.7472269e-01   4.1128783e-01  -1.5296257e-01
  -5.6003256e-03   8.4249113e-04   3.3234531e-02  -4.5603947e-02   1.4461387e-02   1.2997322e-01   3.1460072e-02  -9.6860203e-02   3.1967393e-01  -2.0126107e-01  -2.2091891e-01  -1.4703676e-02  -2.7545456e-01   3.3822008e-01  -9.8398146e-02  -3.1026258e-01   1.5549142e-01  -1.8626644e-01  -2.2536381e-01   1.3662463e-01   2.3862832e-02  -2.3871570e-01  -1.0105587e-01   4.1112539e-01
   1.3704165e-02   7.9567915e-03   2.0837081e-02  -2.2024630e-02   2.6204983e-02   2.1635385e-02  -3.7831778e-02   1.8768921e-02   9.8449737e-02  -2.9494084e-02  -9.8326328e-02  -1.8626253e-02  -1.2112731e-01   1.7663452e-01  -2.6097148e-01  -6.1492713e-02   1.3113204e-01   1.5630174e-01  -6.3350285e-02  -7.9937028e-02  -1.8461340e-01  -3.8116365e-02   1.3209825e-01   9.1746110e-02
  -1.4889223e-02  -1.4627934e-02   9.3727064e-03  -2.0625261e-02   6.7391903e-03   5.2026646e-02   4.3234016e-02   3.4835012e-03   1.4274031e-02  -1.9548391e-01   1.8260776e-01  -1.6571473e-02   1.2539659e-01  -1.6209648e-01   2.0457286e-01  -7.8499378e-02   1.8139626e-01   3.9522872e-01   4.0290184e-02  -1.4932768e-01  -1.7733464e-01   1.3030491e-02  -2.2623909e-01   3.3414772e-01
   1.7972420e-03   8.0969254e-03  -1.2288731e-02   2.5317211e-02  -4.0549641e-02  -7.3517358e-02   2.9965357e-03   5.0842783e-02  -7.9656441e-02   7.9326031e-02  -2.0821786e-01   6.9550723e-03  -1.3450398e-01   1.1928187e-01  -1.8506398e-01  -1.5162201e-01   6.8856240e-02   2.6833320e-02  -1.9451964e-01   3.2061970e-01  -3.4365066e-01   5.3925452e-02  -6.4718402e-01   1.8916727e-01
   5.6846359e-03   1.1234122e-03  -7.2208352e-04   4.3478497e-02   4.7032368e-02  -4.0329927e-02   4.9605184e-02   4.8863832e-02   3.9272900e-03  -8.5899969e-02  -5.2118511e-02  -6.2751453e-02  -8.5258509e-02  -3.7761885e-03  -2.2198599e-01  -1.0031593e-02  -6.1181451e-02   3.7017333e-02  -2.4335875e-01   2.5949973e-02   1.6303566e-03  -6.5301684e-02  -3.9252213e-02  -4.1629607e-02
   7.2587646e-03  -3.6948958e-03  -7.4507901e-03  -2.1215296e-02  -6.8534726e-03  -1.3546240e-02  -1.0333102e-02  -6.5328128e-02   1.6907619e-02  -6.7802640e-02  -1.0146166e-02  -3.9602065e-02  -4.3268957e-02  -1.4245476e-01   1.8994392e-01  -2.8001972e-02  -3.1139436e-01   4.5564899e-02   2.1572827e-01   1.4147303e-01  -2.5920025e-01   1.1146522e-01   2.6542942e-01  -2.8334649e-01
  -7.8554631e-03   8.5343401e-03   6.7273604e-03  -1.6233194e-03   2.0211221e-02  -2.3295936e-03   1.7638353e-02  -1.4958742e-02  -1.3166363e-02  -2.6939935e-02  -1.3090593e-01  -7.3230892e-02  -8.9706362e-02  -2.3681762e-02   6.2959557e-02  -2.2696140e-01   1.8133124e-01   1.3423762e-01   2.4429063e-02  -1.4466089e-01   3.1014045e-01   1.4829939e-01  -1.0828903e-01   3.3512383e-01
   8.2858077e-04   5.0450913e-03  -1.4720059e-03   7.6271563e-03   3.0663655e-03   1.0732025e-02   1.4314114e-02   4.0902664e-02   9.8596828e-03   4.0840933e-02   3.4638637e-02   1.7487905e-02  -1.6364718e-02   1.7828627e-01  -9.0535091e-02   4.7759829e-02   2.6369085e-01   1.3222629e-02  -1.5995697e-01  -1.4046755e-01   8.7231079e-02  -1.8286641e-01  -6.9712688e-02   1.8085060e-01
   5.6766441e-03  -1.4588349e-02   1.3219988e-02   1.3649448e-02  -2.8162794e-02   1.2495158e-02  -1.3159804e-02   6.3680798e-02  -2.1865812e-02   4.1364654e-02   9.8269502e-02   6.6380106e-02   1.0681160e-01  -7.7030557e-03  -1.2313652e-01   2.1548950e-01   1.2373723e-01  -2.0160986e-01  -5.7363043e-02   3.5598354e-02  -2.5586558e-01  -1.7594699e-02  -4.1935024e-01  -3.9590196e-01
  -1.2120813e-02   7.3246301e-03   8.0538884e-04  -1.1235662e-02  -5.7414510e-02   2.3215832e-03   1.2924623e-02  -7.0144861e-02  -8.2295194e-03  -8.6446294e-02  -1.7068428e-01   2.6684238e-01   2.7273908e-01   4.3770984e-02   2.2442803e-01   3.7544306e-02   3.8372852e-01   5.6833613e-01   3.1294036e-01  -2.1070204e-01  -4.1925045e-01   3.9025603e-01   3.5237133e-01  -1.1786297e-01
  -5.2309415e-03   1.3945648e-03   3.1272184e-02  -4.5110758e-02   1.9859974e-02   1.3438453e-01   3.0013889e-02  -1.0382499e-01   3.3032385e-01  -2.0104732e-01  -2.2908390e-01  -1.3765798e-02  -2.7443209e-01   3.4054411e-01  -7.6390504e-02  -2.8382214e-01   1.1261658e-01  -1.6468246e-01  -2.0239611e-01   1.2464814e-01  -6.3406822e-03  -1.7902986e-01  -1.2713592e-02   4.4982755e-01
   1.2855770e-02   8.7463883e-03   2.1488483e-02  -2.3289269e-02   2.7841948e-02   1.8995810e-02  -3.2586717e-02   2.3349284e-02   9.2079271e-02  -1.3242626e-02  -9.7081183e-02  -2.9908682e-02  -1.1407922e-01   1.8110762e-01  -2.8955509e-01  -7.6162809e-02   1.4568966e-01   1.7025530e-01  -9.5692573e-02  -9.2562244e-02  -1.4333540e-01   1.3491278e-02   1.5406369e-01   8.6200871e-02
  -1.3643645e-02  -1.4927076e-02   9.8855794e-03  -1.9261912e-02   2.3959152e-03   5.0752151e-02   3.8662567e-02   1.7419141e-02  -2.8789809e-03  -2.0504068e-01   1.7116416e-01  -1.3137029e-02   1.4277046e-01  -1.6875781e-01   1.6332317e-01  -8.3207253e-02   2.3981315e-01   4.6484261e-01   8.2638879e-02  -1.4057357e-01  -2.4092410e-01   2.3341144e-02  -2.3760184e-01   3.1342169e-01
   1.5951697e-03   7.9843663e-03  -1.4940136e-02   2.9862522e-02  -3.0031065e-02  -8.3864915e-02   2.2711520e-02   7.6261018e-02  -7.0976408e-02   6.4706167e-02  -2.0636992e-01  -2.8262859e-02  -1.7725780e-01   1.2291750e-01  -2.3774826e-01  -2.0541291e-01   1.1783829e-01   3.2310255e-02  -1.7417873e-01   3.3400257e-01  -3.8500790e-01   5.7558302e-02  -6.1696404e-01   2.3180580e-01
   7.2667105e-03   3.2421786e-03   6.3197801e-04   4.4788143e-02   5.9225054e-02  -3.7846899e-02   5.1397738e-02   4.9842653e-02   1.0917310e-02  -7.0033153e-02  -4.8205894e-02  -8.1716322e-02  -1.0310743e-01   2.0736004e-02  -2.4782179e-01  -4.9432094e-03  -8.6346208e-02   1.6683027e-02  -2.5567787e-01   2.1096166e-03   1.3761354e-02  -8.4921843e-02  -6.6574923e-02  -5.7613519e-02
   7.6158859e-03  -4.4172825e-03  -9.0852339e-03  -2.2804274e-02  -1.2444701e-02  -1.0835950e-02  -1.0776711e-02  -7.6262074e-02   2.2667962e-02  -5.9252454e-02  -1.6325078e-02  -2.8834228e-02  -5.1081964e-02  -1.2396322e-01   1.5789630e-01  -1.1323076e-02  -3.2488570e-01   7.5659019e-02   2.4940276e-01   1.3982491e-01  -2.9334013e-01   8.0814147e-02   2.1441614e-01  -3.0195398e-01
  -7.3013019e-03   8.0698345e-03   5.5543036e-03  -1.8598598e-03   2.3247507e-02  -3.9629528e-03   2.8176007e-02  -7.5662455e-03  -1.1487453e-02  -2.8685430e-02  -1.2250210e-01  -7.7447478e-02  -8.3302116e-02  -1.8210528e-02   9.3175236e-02  -2.4827025e-01   1.4833790e-01   1.2771877e-01   1.9085350e-02  -1.6529638e-01   2.9473268e-01   1.6162236e-01  -2.2189475e-01   2.9168854e-01
   7.8812358e-04   5.7704220e-03   5.6145250e-04   1.0135487e-02   8.2637881e-03   1.6559932e-03   1.0218590e-02   4.9169009e-02   1.2806309e-02   3.6504960e-02   4.7009006e-02   8.0690441e-03  -1.2296248e-02   1.6889663e-01  -6.8803339e-02   3.6187345e-02   2.9385774e-01  -1.4556430e-02  -1.7121146e-01  -1.2697293e-01   1.0589384e-01  -1.8422094e-01  -3.7184149e-03   2.1551551e-01
   5.6566634e-03  -1.5173112e-02   1.0886040e-02   1.3665856e-02  -3.3196243e-02   2.5950939e-02  -1.4702290e-02   6.7592280e-02  -2.9381055e-02   4.5615950e-02   1.0367392e-01   9.1511789e-02   9.3430428e-02  -2.3930838e-02  -1.2947826e-01   2.2731504e-01   1.6305832e-01  -2.2075101e-01  -1.0782463e-01   3.9039461e-02  -1.9907269e-01  -2.4779977e-02  -2.9848250e-01  -3.7990869e-01
  -1.2586849e-02   6.0164689e-03  -3.0785912e-04  -4.1019076e-03  -4.2040754e-02   8.0418861e-03   2.6529601e-02  -6.6558970e-02   5.0019554e-03  -1.1235045e-01  -1.5923088e-01   2.4483683e-01   2.6285959e-01   4.7487497e-02   2.0316473e-01   3.9403509e-02   3.4126347e-01   5.6205048e-01   3.1133547e-01  -1.9388814e-01  -4.2261465e-01   4.0133787e-01   2.9447611e-01  -7.8952250e-02
  -4.7873061e-03   2.3245026e-03   2.8883535e-02  -4.5242377e-02   2.4152293e-02   1.3803681e-01   2.9144676e-02  -1.1024721e-01   3.3901735e-01  -1.9957072e-01  -2.3482918e-01  -9.0700495e-03  -2.6736312e-01   3.3910025e-01  -5.2998886e-02  -2.5368888e-01   6.9540854e-02  -1.4134780e-01  -1.7242928e-01   1.1191143e-01  -4.4092786e-02  -1.1344961e-01   7.6077973e-02   4.8084626e-01
   1.1714727e-02   9.1503842e-03   2.2029944e-02  -2.4193812e-02   2.7752543e-02   1.7926241e-02  -2.9448178e-02   2.7085041e-02   8.0462045e-02   2.0886933e-03  -9.1272616e-02  -3.8011108e-02  -9.7654105e-02   1.7482427e-01  -3.1022393e-01  -8.2735346e-02   1.6130725e-01   1.8788404e-01  -1.1665768e-01  -1.0623506e-01  -9.9475074e-02   6.3967206e-02   1.5777813e-01   7.5305786e-02
  -1.2335690e-02  -1.5007294e-02   9.8890595e-03  -1.5730799e-02  -1.3507534e-03   4.8567688e-02   3.5517687e-02   2.8852236e-02  -1.5491404e-02  -2.1013941e-01   1.5836503e-01  -7.7128895e-03   1.6105557e-01  -1.7717617e-01   1.1494371e-01  -7.7336728e-02   2.8113741e-01   5.1160174e-01   1.1835405e-01  -1.2068459e-01  -2.9095135e-01   3.3528414e-02  -2.3773458e-01   2.7833631e-01
   1.8040448e-03   7.2138146e-03  -1.6912567e-02   3.2933532e-02  -1.9832838e-02  -9.3293423e-02   3.9388276e-02   1.0039927e-01  -6.1031184e-02   5.5843291e-02  -2.0074343e-01  -6.7251875e-02  -2.1958629e-01   1.2716988e-01  -2.8718275e-01  -2.5921538e-01   1.6233950e-01   3.0159439e-02  -1.5842249e-01   3.5116688e-01  -4.0784260e-01   5.9494142e-02  -5.6131542e-01   2.5015863e-01
   7.8928427e-03   4.7051144e-03   1.8621640e-03   4.3869062e-02   6.8851163e-02  -3.2488978e-02   5.1506260e-02   4.7514796e-02   1.8197438e-02  -4.9069324e-02  -3.5076221e-02  -9.9306813e-02  -1.0879274e-01   4.1059018e-02  -2.5747864e-01   2.7309369e-03  -1.0924026e-01  -4.2031997e-03  -2.6113752e-01  -1.4367255e-02   2.4739830e-02  -9.1216039e-02  -1.0662780e-01  -6.9451537e-02
   7.7585832e-03  -5.0438485e-03  -1.1466711e-02  -2.3987628e-02  -1.6461380e-02  -5.2959793e-03  -9.0321705e-03  -8.2160558e-02   2.6670935e-02  -4.2757445e-02  -1.4350894e-02  -1.5834583e-02  -5.5317615e-02  -9.9762978e-02   1.1340116e-01   3.6667593e-03  -3.3744589e-01   9.7633071e-02   2.6642296e-01   1.4022157e-01  -3.1576332e-01   5.1840979e-02   1.4176243e-01  -2.9832485e-01
  -6.6001554e-03   7.5760754e-03   4.3601339e-03  -2.0980573e-03   2.7149755e-02  -6.1021984e-03   3.8848347e-02   3.7514620e-03  -7.1194371e-03  -2.7367785e-02  -1.0764786e-01  -7.7954138e-02  -7.2378089e-02  -7.3380708e-03   1.2270661e-01  -2.6342918e-01   1.0931745e-01   1.1547761e-01   6.0552270e-03  -1.7375593e-01   2.9026465e-01   1.6797156e-01  -3.3468849e-01   2.4181044e-01
   9.8032077e-04   6.1225592e-03   2.0669904e-03   1.2535281e-02   1.3552266e-02  -5.1227903e-03   5.8800678e-03   5.6007549e-02   1.4147390e-02   3.3202072e-02   5.6402411e-02   1.7423820e-03  -1.1046566e-02   1.4872391e-01  -4.5969873e-02   2.3954930e-02   3.1129144e-01  -3.8365748e-02  -1.7979062e-01  -1.0924226e-01   1.3320275e-01  -1.8267455e-01   6.7982554e-02   2.3832327e-01
   5.5959549e-03  -1.5639463e-02   8.1530878e-03   1.3431361e-02  -3.6755599e-02   3.9157982e-02  -1.7381011e-02   7.0870849e-02  -3.3021724e-02   5.3196181e-02   1.0821722e-01   1.1696946e-01   7.6570429e-02  -4.7014323e-02  -1.3692814e-01   2.3653833e-01   2.0132736e-01  -2.3050038e-01  -1.5829680e-01   4.9947122e-02  -1.3666597e-01  -4.7690583e-02  -1.4839914e-01  -3.4484006e-01
  -1.3010700e-02   4.4802444e-03  -2.0097548e-03   2.9276629e-03  -2.5551049e-02   1.4754794e-02   4.2465052e-02  -6.1322055e-02   2.2512423e-02  -1.3979509e-01  -1.4601652e-01   2.1778178e-01   2.4709280e-01   5.0768505e-02   1.7459040e-01   3.7214469e-02   2.9328600e-01   5.4862610e-01   3.0810271e-01  -1.6883335e-01  -4.2064727e-01   4.0640130e-01   2.4106554e-01  -3.7935982e-02
  -4.2839550e-03   3.5565392e-03   2.6160186e-02  -4.6059560e-02   2.7038018e-02   1.4106788e-01   2.8296906e-02  -1.1600678e-01   3.4515146e-01  -1.9659051e-01  -2.3761147e-01  -4.7884909e-04  -2.5318148e-01   3.3338891e-01  -2.8250913e-02  -2.2027050e-01   2.8398481e-02  -1.1553941e-01  -1.3476927e-01   9.8333388e-02  -8.8191772e-02  -4.3169979e-02   1.6431068e-01   5.0216374e-01
   1.0282267e-02   9.1143844e-03   2.2165275e-02  -2.4211999e-02   2.5828600e-02   1.8346390e-02  -2.8285728e-02   2.9551964e-02   6.4710559e-02   1.5486289e-02  -8.1557500e-02  -4.2583091e-02  -7.1635137e-02   1.5764136e-01  -3.2152167e-01  -7.7650128e-02   1.7501874e-01   2.0737179e-01  -1.2167539e-01  -1.1970275e-01  -5.5774028e-02   1.1092105e-01   1.4330910e-01   5.9344181e-02
  -1.1080072e-02  -1.4782138e-02   9.0366374e-03  -9.7832730e-03  -4.2751138e-03   4.5342925e-02   3.3371294e-02   3.7000044e-02  -2.3093799e-02  -2.0914557e-01   1.4463633e-01  -4.6268297e-04   1.8019155e-01  -1.8539957e-01   6.4108775e-02  -5.9138633e-02   3.0271416e-01   5.3300378e-01   1.4855570e-01  -9.0474630e-02  -3.2402928e-01   4.2836572e-02  -2.2929627e-01   2.3334049e-01
   2.4477888e-03   5.9759414e-03  -1.7763414e-02   3.4371518e-02  -1.0416836e-02  -1.0108803e-01   5.1310819e-02   1.2122961e-01  -5.1714445e-02   5.4507082e-02  -1.9104376e-01  -1.0569141e-01  -2.5710998e-01   1.3096836e-01  -3.2860294e-01  -3.0538939e-01   2.0059566e-01   2.1796489e-02  -1.4901702e-01   3.6520962e-01  -4.0865482e-01   6.1341835e-02  -4.8777405e-01   2.3841542e-01
   7.4651730e-03   5.4624035e-03   2.7504461e-03   4.1101355e-02   7.5018558e-02  -2.4892709e-02   5.0485863e-02   4.2649063e-02   2.5317674e-02  -2.7020145e-02  -1.5905531e-02  -1.1468048e-01  -1.0507598e-01   5.5409817e-02  -2.5121317e-01   1.0901970e-02  -1.2425751e-01  -2.3395883e-02  -2.5844426e-01  -2.2099348e-02   3.0551035e-02  -8.4763965e-02  -1.5835322e-01  -6.8255245e-02
   7.7112778e-03  -5.4171838e-03  -1.4392780e-02  -2.4996972e-02  -1.8783442e-02   3.3075655e-03  -4.3993340e-03  -8.2745186e-02   2.8070827e-02  -1.8570050e-02  -4.7404097e-03  -7.4343365e-04  -5.5250376e-02  -7.3134333e-02   5.6235475e-02   1.4747917e-02  -3.4915422e-01   1.1140468e-01   2.6666394e-01   1.4130916e-01  -3.2304011e-01   2.8752030e-02   5.2431362e-02  -2.6829046e-01
  -5.7989021e-03   7.1883009e-03   3.1239594e-03  -2.4411123e-03   3.1507256e-02  -9.0872142e-03   4.9035470e-02   1.8548544e-02  -2.3232618e-04  -2.2673472e-02  -8.6669617e-02  -7.4657219e-02  -5.7736488e-02   8.6803976e-03   1.4956254e-01  -2.7147981e-01   6.7001229e-02   9.7639380e-02  -1.2646589e-02  -1.6840553e-01   2.9536900e-01   1.6458006e-01  -4.3746403e-01   1.9077392e-01
   1.3989785e-03   6.0634374e-03   2.6581276e-03   1.4338375e-02   1.8602252e-02  -7.4839007e-03   2.1454698e-03   6.0510539e-02   1.1666305e-02   3.2277882e-02   6.2060027e-02   8.0333041e-04  -1.2361326e-02   1.1562801e-01  -2.6791021e-02   1.0816123e-02   3.1127787e-01  -5.6941037e-02  -1.8788966e-01  -8.9791857e-02   1.6852207e-01  -1.7186717e-01   1.4207262e-01   2.4978473e-01
   5.4784368e-03  -1.5926576e-02   5.2427686e-03   1.2804864e-02  -3.8589005e-02   5.0605738e-02  -2.1199557e-02   7.3262693e-02  -3.1858235e-02   6.3263658e-02   1.1078635e-01   1.4084747e-01   5.6951307e-02  -7.5381120e-02  -1.4353223e-01   2.4153300e-01   2.3695700e-01  -2.2899294e-01  -2.0680527e-01   6.8460681e-02  -7.1768973e-02  -8.3686295e-02   2.4905782e-02  -2.9318093e-01
  -1.3363532e-02   2.7410998e-03  -4.2517269e-03   9.7272355e-03  -8.1574607e-03   2.2613906e-02   6.0339906e-02  -5.4766306e-02   4.4173241e-02  -1.6821366e-01  -1.3116720e-01   1.8582715e-01   2.2545126e-01   5.2813530e-02   1.3871694e-01   3.1883082e-02   2.4011818e-01   5.2804322e-01   3.0257560e-01  -1.3577552e-01  -4.1281965e-01   4.0420402e-01   1.9504072e-01   3.3907525e-03
  -3.7391178e-03   4.9999233e-03   2.3197492e-02  -4.7596546e-02   2.8265010e-02   1.4359702e-01   2.6901340e-02  -1.2098460e-01   3.4821142e-01  -1.9198023e-01  -2.3696963e-01   1.1969903e-02  -2.3094312e-01   3.2293444e-01  -2.3582935e-03  -1.8396080e-01  -8.7971559e-03  -8.6190551e-02  -8.8858498e-02   8.3887224e-02  -1.3726945e-01   3.0817264e-02   2.5159518e-01   5.1148752e-01
   8.5738264e-03   8.6278343e-03   2.1585076e-02  -2.2906587e-02   2.2153105e-02   2.0027646e-02  -2.8803019e-02   3.0486927e-02   4.6426364e-02   2.6213387e-02  -6.8945627e-02  -4.3786911e-02  -3.6606193e-02   1.3060912e-01  -3.2234766e-01  -5.8432719e-02   1.8319662e-01   2.2653579e-01  -1.0735201e-01  -1.3097294e-01  -1.4614413e-02   1.5231052e-01   1.1268145e-01   3.9543267e-02
  -9.9797364e-03  -1.4159441e-02   7.0966403e-03  -1.4287682e-03  -6.2159746e-03   4.0985294e-02   3.1557625e-02   4.1381774e-02  -2.5677941e-02  -2.0076254e-01   1.3049339e-01   8.0501304e-03   2.0013840e-01  -1.9138538e-01   1.6058396e-02  -2.7798967e-02   3.0331865e-01   5.2826889e-01   1.7461594e-01  -5.1732152e-02  -3.3758400e-01   5.0280507e-02  -2.1529410e-01   1.8350510e-01
   3.5148113e-03   4.5063668e-03  -1.7188324e-02   3.4257569e-02  -1.9751287e-03  -1.0668263e-01   5.7207552e-02   1.3682851e-01  -4.4566704e-02   6.1654151e-02  -1.7722605e-01  -1.3922234e-01  -2.8564238e-01   1.3340511e-01  -3.5762865e-01  -3.3642472e-01   2.3037970e-01   8.8074760e-03  -1.4671827e-01   3.6908003e-01  -3.8563844e-01   6.5008490e-02  -4.0379632e-01   1.9378067e-01
   6.0030312e-03   5.4714404e-03   3.0429812e-03   3.7062858e-02   7.7176064e-02  -1.6042117e-02   4.9264762e-02   3.6592454e-02   3.1881050e-02  -8.4877150e-03   5.3296980e-03  -1.2746434e-01  -9.6187354e-02   6.2506082e-02  -2.3172237e-01   1.5988686e-02  -1.2588154e-01  -3.8095732e-02  -2.4636622e-01  -1.9382841e-02   2.7341071e-02  -6.8421921e-02  -2.1798025e-01  -4.5946137e-02
   7.5084757e-03  -5.4140197e-03  -1.7399769e-02  -2.5871333e-02  -1.9630462e-02   1.4417099e-02   3.3508300e-03  -7.8551837e-02   2.6295805e-02   1.1407880e-02   1.0539504e-02   1.5645536e-02  -5.0614099e-02  -4.6782189e-02  -1.1447750e-02   2.0137819e-02  -3.5838300e-01   1.1779147e-01   2.5214365e-01   1.4030371e-01  -3.1482421e-01   1.4418270e-02  -4.7860237e-02  -2.1132787e-01
  -4.9511421e-03   7.0365743e-03   1.8501691e-03  -2.9467548e-03   3.5762027e-02  -1.3384809e-02   5.7968391e-02   3.5828958e-02   8.7360356e-03  -1.5077153e-02  -6.0441343e-02  -6.7989434e-02  -4.0447585e-02   2.9547173e-02   1.7234768e-01  -2.7146427e-01   2.4971555e-02   7.4520939e-02  -3.3843611e-02  -1.4878474e-01   3.0665440e-01   1.4935723e-01  -5.2112425e-01   1.4293199e-01
   2.0033201e-03   5.5381808e-03   2.2164302e-03   1.5270973e-02   2.2936195e-02  -4.2039319e-03  -5.1671346e-04   6.1256609e-02   3.3193014e-03   3.3543007e-02   6.2572339e-02   6.3127549e-03  -1.5516102e-02   6.9166690e-02  -1.4360877e-02  -3.2227453e-03   2.9098833e-01  -6.8960935e-02  -1.9605664e-01  -7.2731193e-02   2.0770512e-01  -1.4650564e-01   2.1347501e-01   2.4990822e-01
   5.2663051e-03  -1.5952263e-02   2.4366099e-03   1.1666193e-02  -3.8573492e-02   5.8502635e-02  -2.6102476e-02   7.4463967e-02  -2.4786260e-02   7.4275377e-02   1.1005384e-01   1.6043931e-01   3.5428372e-02  -1.0625400e-01  -1.4643038e-01   2.4087050e-01   2.6899178e-01  -2.1488457e-01  -2.5018330e-01   9.3865759e-02  -8.5633835e-03  -1.2970529e-01   2.1334991e-01  -2.2933348e-01
  -1.3626521e-02   8.4145896e-04  -6.9386163e-03   1.6181639e-02   9.9199895e-03   3.1789084e-02   7.9665386e-02  -4.7389710e-02   6.9735816e-02  -1.9706397e-01  -1.1481812e-01   1.4941002e-01   1.9823139e-01   5.2813701e-02   9.5978658e-02   2.4845015e-02   1.8215968e-01   5.0048382e-01   2.9414729e-01  -9.5472452e-02  -3.9873577e-01   3.9389880e-01   1.5870238e-01   4.3381754e-02
  -3.1741961e-03   6.5520092e-03   2.0085826e-02  -4.9855496e-02   2.7636822e-02   1.4572061e-01   2.4422559e-02  -1.2506840e-01   3.4780761e-01  -1.8573819e-01  -2.3254036e-01   2.8074466e-02  -1.9985992e-01   3.0731934e-01   2.4270412e-02  -1.4512635e-01  -4.0275238e-02  -5.1970528e-02  -3.4285981e-02   6.8639948e-02  -1.8987945e-01   1.0769274e-01   3.3813033e-01   5.0639560e-01
   6.6328210e-03   7.7369126e-03   2.0034617e-02  -2.0033935e-02   1.7000459e-02   2.2663110e-02  -3.0640049e-02   2.9791976e-02   2.7496038e-02   3.3886691e-02  -5.4716034e-02  -4.2157014e-02   5.9361302e-03   9.5907402e-02  -3.1204470e-01  -2.4116906e-02   1.8203257e-01   2.4286095e-01  -7.2113182e-02  -1.3771668e-01   2.2150421e-02   1.8658594e-01   6.9749303e-02   1.7852990e-02
  -9.1089743e-03  -1.3051371e-02   3.9886250e-03   9.0412903e-03  -7.0275042e-03   3.5436811e-02   2.9342998e-02   4.1902217e-02  -2.3636945e-02  -1.8428123e-01   1.1655141e-01   1.6795897e-02   2.2067532e-01  -1.9328225e-01  -2.4198307e-02   1.6272836e-02   2.8337996e-01   4.9847091e-01   1.9764268e-01  -7.3911069e-03  -3.3021957e-01   5.4984801e-02  -1.9853406e-01   1.3385062e-01
   4.9609041e-03   3.0565205e-03  -1.5085767e-02   3.2944894e-02   5.6156151e-03  -1.0973869e-01   5.6428325e-02   1.4560406e-01  -4.0584210e-02   7.7219909e-02  -1.5958135e-01  -1.6397468e-01  -3.0162724e-01   1.3393460e-01  -3.7087260e-01  -3.4589791e-01   2.4900192e-01  -7.1393960e-03  -1.5118401e-01   3.5677394e-01  -3.3894484e-01   7.2216872e-02  -3.1588499e-01   1.1723857e-01
   3.6481272e-03   4.7009927e-03   2.4982277e-03   3.2442590e-02   7.5172847e-02  -7.1538344e-03   4.8961088e-02   3.1068090e-02   3.7438996e-02   2.0750770e-03   2.4446354e-02  -1.3754442e-01  -8.6985777e-02   6.1684470e-02  -2.0374285e-01   1.3635173e-02  -1.0948470e-01  -4.5092750e-02  -2.2392865e-01  -4.6075341e-03   1.2271210e-02  -4.6812809e-02  -2.7948102e-01   2.7379500e-03
   7.1760879e-03  -4.9444834e-03  -1.9770023e-02  -2.6408391e-02  -1.9467822e-02   2.6498525e-02   1.3830429e-02  -7.0797309e-02   2.1502411e-02   4.3545998e-02   2.8210240e-02   3.1558633e-02  -4.1791849e-02  -2.2095737e-02  -8.4488297e-02   1.8975812e-02  -3.6146149e-01   1.1850761e-01   2.2707868e-01   1.3354649e-01  -2.9423325e-01   9.2155925e-03  -1.5292851e-01  -1.3164267e-01
  -4.1182389e-03   7.2310906e-03   5.6667860e-04  -3.6034623e-03   3.9281524e-02  -1.9529814e-02   6.4742693e-02   5.4050908e-02   1.9083173e-02  -5.8820288e-03  -3.0298238e-02  -5.8915458e-02  -2.1819021e-02   5.5028262e-02   1.9036695e-01  -2.6238090e-01  -1.2560007e-02   4.6619701e-02  -5.3491196e-02  -1.1556970e-01   3.1874360e-01   1.2093125e-01  -5.7735477e-01   1.0122946e-01
   2.6952140e-03   4.4971491e-03   9.2090344e-04   1.5326632e-02   2.6016691e-02   4.5752237e-03  -2.1963155e-03   5.6542400e-02  -1.2015774e-02   3.4973089e-02   5.6025325e-02   1.7348839e-02  -1.9532070e-02   1.1554685e-02  -8.9979594e-03  -1.7476655e-02   2.5043592e-01  -7.3110587e-02  -2.0255481e-01  -6.2831574e-02   2.4252047e-01  -1.0400213e-01   2.7559730e-01   2.3705327e-01
   4.9078343e-03  -1.5621169e-02   3.7872908e-05   9.9079161e-03  -3.6675068e-02   6.0997041e-02  -3.1918578e-02   7.4200921e-02  -1.0639943e-02   8.4265516e-02   1.0468391e-01   1.7247442e-01   1.2973672e-02  -1.3586970e-01  -1.4222320e-01   2.3338070e-01   2.9688559e-01  -1.8763808e-01  -2.8443223e-01   1.2460255e-01   4.8267100e-02  -1.8222815e-01   4.0694321e-01  -1.5900173e-01
  -1.3792315e-02  -1.1624914e-03  -9.9434598e-03   2.2203789e-02   2.8485269e-02   4.2447572e-02   9.9916306e-02  -3.9815216e-02   9.8890585e-02  -2.2590634e-01  -9.7114810e-02   1.0917144e-01   1.6593992e-01   5.0022588e-02   4.7150396e-02   1.7915423e-02   1.1980330e-01   4.6631806e-01   2.8232581e-01  -4.9054445e-02  -3.7821399e-01   3.7505224e-01   1.3375919e-01   8.0779650e-02
  -2.6137940e-03   8.1024340e-03   1.6902896e-02  -5.2801845e-02   2.5008771e-02   1.4751179e-01   2.0387495e-02  -1.2816447e-01   3.4368188e-01  -1.7797237e-01  -2.2406917e-01   4.7519435e-02  -1.5928780e-01   2.8621314e-01   5.1083267e-02  -1.0405740e-01  -6.4596481e-02  -1.1358815e-02   2.9247533e-02   5.2777029e-02  -2.4456304e-01   1.8675500e-01   4.2458668e-01   4.8451624e-01
   4.5452825e-03   6.5501180e-03   1.7384397e-02  -1.5633230e-02   1.0827795e-02   2.5930427e-02  -3.3471971e-02   2.7520728e-02   9.8597492e-03   3.8508928e-02  -4.0315156e-02  -3.8439793e-02   5.3488077e-02   5.6692191e-02  -2.9051620e-01   2.4368116e-02   1.6813203e-01   2.5353704e-01  -1.6794872e-02  -1.3780216e-01   5.3257471e-02   2.1284845e-01   2.0043402e-02  -3.4164986e-03
  -8.4994711e-03  -1.1391628e-02  -1.9144150e-04   2.1047301e-02  -6.5520641e-03   2.8680175e-02   2.6089845e-02   3.8904843e-02  -1.7726422e-02  -1.5977125e-01   1.0354244e-01   2.4319201e-02   2.4127268e-01  -1.8973431e-01  -5.2657716e-02   7.1249049e-02   2.4515721e-01   4.4666952e-01   2.1803425e-01   3.8341342e-02  -3.0200734e-01   5.6549460e-02  -1.8120467e-01   8.8584072e-02
   6.7123775e-03   1.8640258e-03  -1.1594795e-02   3.1059242e-02   1.2777519e-02  -1.1020563e-01   4.9042309e-02   1.4649175e-01  -4.0159280e-02   1.0001662e-01  -1.3880173e-01  -1.7694247e-01  -3.0245607e-01   1.3249363e-01  -3.6638444e-01  -3.2928900e-01   2.5353298e-01  -2.4286037e-02  -1.6092786e-01   3.2434157e-01  -2.7074914e-01   8.3999471e-02  -2.2899740e-01   1.3937534e-02
   6.5763660e-04   3.1471575e-03   9.4246956e-04   2.7949274e-02   6.9291264e-02   4.7450585e-04   5.0635844e-02   2.7873749e-02   4.1390181e-02   1.1691580e-03   3.7693581e-02  -1.4478598e-01  -8.1969873e-02   5.2978130e-02  -1.7330646e-01  -2.0821071e-04  -7.2214705e-02  -4.1097491e-02  -1.9066298e-01   2.3082735e-02  -1.5659497e-02  -2.5449647e-02  -3.3534380e-01   7.8472683e-02
   6.7224430e-03  -3.9416330e-03  -2.0600385e-02  -2.6187047e-02  -1.8866249e-02   3.7090988e-02   2.6022649e-02  -6.1084505e-02   1.4909143e-02   7.2832514e-02   4.4122832e-02   4.4240527e-02  -2.9951362e-02   1.2011196e-03  -1.5474761e-01   1.1620074e-02  -3.5276624e-01   1.1598054e-01   1.9747008e-01   1.1736581e-01  -2.6731521e-01   1.0423788e-02  -2.5606733e-01  -3.8262306e-02
  -3.3665749e-03   7.8475320e-03  -6.9210813e-04  -4.3241860e-03   4.1444317e-02  -2.7989194e-02   6.8373865e-02   7.1182013e-02   2.9802415e-02   2.8865127e-03   2.1132424e-03  -4.8802557e-02  -3.3410120e-03   8.4922671e-02   2.0350166e-01  -2.4319639e-01  -4.1176974e-02   1.4590510e-02  -6.7155629e-02  -7.0434742e-02   3.2462325e-01   7.8807015e-02  -5.9921395e-01   6.7004342e-02
   3.3096394e-03   2.9306931e-03  -7.9970740e-04   1.4730111e-02   2.7374876e-02   1.7140364e-02  -3.5772019e-03   4.4806881e-02  -3.3882069e-02   3.2914167e-02   4.0480090e-02   3.0656476e-02  -2.3420273e-02  -5.1843091e-02  -7.8498060e-03  -3.0364802e-02   1.9300388e-01  -6.8342154e-02  -2.0323422e-01  -6.4152546e-02   2.6115065e-01  -4.5519033e-02   3.2120547e-01   2.0770801e-01
   4.3514187e-03  -1.4841946e-02  -1.6779030e-03   7.4222823e-03  -3.2910924e-02   5.6492875e-02  -3.8279255e-02   7.2297192e-02   1.1565294e-02   9.1248256e-02   9.3550585e-02   1.7353447e-01  -9.3079599e-03  -1.5993512e-01  -1.2757120e-01   2.1812005e-01   3.2004719e-01  -1.4777945e-01  -3.0531815e-01   1.5824914e-01   9.4380950e-02  -2.3704944e-01   5.9399436e-01  -8.8291765e-02
  -1.3865936e-02  -3.2063482e-03  -1.3124742e-02   2.7749887e-02   4.7391761e-02   5.4734081e-02   1.2059452e-01  -3.2736102e-02   1.3132436e-01  -2.5447572e-01  -7.8219370e-02   6.5860216e-02   1.2920450e-01   4.3824006e-02  -6.7634519e-03   1.3095725e-02   5.3369439e-02   4.2609129e-01   2.6678002e-01   2.1755269e-03  -3.5135744e-01   3.4761463e-01   1.2136106e-01   1.1492946e-01
  -2.0859697e-03   9.5384851e-03   1.3706695e-02  -5.6359354e-02   2.0278655e-02   1.4902230e-01   1.4399505e-02  -1.3021246e-01   3.3569480e-01  -1.6886714e-01  -2.1141821e-01   6.9945083e-02  -1.0868629e-01   2.5940062e-01   7.7482852e-02  -6.0896646e-02  -8.0721420e-02   3.7271501e-02   1.0199264e-01   3.6624360e-02  -2.9989125e-01   2.6734819e-01   5.1194552e-01   4.4374490e-01
   2.4533622e-03   5.2343290e-03   1.3693911e-02  -1.0088988e-02   4.2609231e-03   2.9537182e-02  -3.7086656e-02   2.3855258e-02  -4.7108491e-03   4.0449190e-02  -2.7242297e-02  -3.3458326e-02   1.0246144e-01   1.6875508e-02  -2.5837656e-01   8.3864755e-02   1.3915227e-01   2.5551035e-01   5.4872834e-02  -1.2987401e-01   7.7968587e-02   2.3098134e-01  -2.9388449e-02  -2.2083868e-02
  -8.1317012e-03  -9.1581973e-03  -5.1604852e-03   3.3734085e-02  -4.6260615e-03   2.0755113e-02   2.1389312e-02   3.3182289e-02  -9.0674702e-03  -1.2818832e-01   9.2336474e-02   2.8911142e-02   2.6108252e-01  -1.8018139e-01  -6.6953329e-02   1.3383718e-01   1.9285157e-01   3.7805537e-01   2.3520117e-01   7.9921506e-02  -2.5466494e-01   5.5387939e-02  -1.6464657e-01   5.0303085e-02
   8.6696221e-03   1.1257302e-03  -7.1032906e-03   2.9468887e-02   2.0161964e-02  -1.0835990e-01   3.5857716e-02   1.3910189e-01  -4.3144539e-02   1.2773612e-01  -1.1602119e-01  -1.7618769e-01  -2.8666265e-01   1.2953725e-01  -3.4391367e-01  -2.8459417e-01   2.4121901e-01  -4.0693150e-02  -1.7332930e-01   2.7061365e-01  -1.8512252e-01   1.0023786e-01  -1.4623980e-01  -1.0684222e-01
  -2.6122229e-03   8.5877699e-04  -1.6789128e-03   2.4236148e-02   6.0270061e-02   5.6270007e-03   5.5037505e-02   2.8532461e-02   4.2960541e-02  -1.3015137e-02   4.2340084e-02  -1.4881599e-01  -8.4343616e-02   3.7180411e-02  -1.4683292e-01  -2.8052098e-02  -1.3939716e-02  -2.3312534e-02  -1.4694119e-01   6.3052536e-02  -5.4967221e-02  -9.6546206e-03  -3.7745996e-01   1.7617126e-01
   6.1449480e-03  -2.3512585e-03  -1.8928728e-02  -2.4652932e-02  -1.8346391e-02   4.3146990e-02   3.8419133e-02  -5.0999236e-02   8.8681112e-03   9.3670184e-02   5.3952653e-02   5.0400155e-02  -1.7071759e-02   2.4845869e-02  -2.1193955e-01  -3.3425573e-04  -3.2536331e-01   1.1298357e-01   1.7014404e-01   8.9035902e-02  -2.4148787e-01   1.2375040e-02  -3.4977715e-01   5.5998477e-02
  -2.7606398e-03   8.9116620e-03  -1.9145104e-03  -4.9554405e-03   4.1724668e-02  -3.8952825e-02   6.7891058e-02   8.4789645e-02   3.9478422e-02   8.7235530e-03   3.5021920e-02  -3.9148247e-02   1.3401613e-02   1.1887318e-01   2.1185577e-01  -2.1292273e-01  -5.6873138e-02  -2.0777344e-02  -7.0650208e-02  -1.5870172e-02   3.1628935e-01   2.3655569e-02  -5.8164357e-01   4.0080872e-02
   3.6273083e-03   9.0215940e-04  -2.3922178e-03   1.3821803e-02   2.6747064e-02   3.0366012e-02  -5.8027699e-03   2.5185530e-02  -5.9877774e-02   2.2859914e-02   1.4742069e-02   4.0891639e-02  -2.6380024e-02  -1.1271747e-01  -5.4512848e-03  -3.9520446e-02   1.2531791e-01  -5.4352467e-02  -1.9208465e-01  -7.8504706e-02   2.4999682e-01   2.3864808e-02   3.4373463e-01   1.5741879e-01
   3.5631541e-03  -1.3553458e-02  -2.5151101e-03   4.0915902e-03  -2.7322880e-02   4.4023248e-02  -4.4528426e-02   6.8703342e-02   4.2274667e-02   9.3675478e-02   7.5915479e-02   1.6059401e-01  -3.0126342e-02  -1.7427164e-01  -9.9938833e-02   1.9426440e-01   3.3720299e-01  -9.7067194e-02  -3.0913155e-01   1.9144303e-01   1.2675859e-01  -2.8892334e-01   7.6128158e-01  -2.2690110e-02
  -1.3865135e-02  -5.2244921e-03  -1.6344232e-02   3.2830679e-02   6.6557890e-02   6.8751791e-02   1.4128868e-01  -2.6852470e-02   1.6676713e-01  -2.8274165e-01  -5.8321087e-02   2.0238905e-02   8.8679718e-02   3.3787955e-02  -6.4656730e-02   1.2357676e-02  -1.6927788e-02   3.8051850e-01   2.4737521e-01   5.6967509e-02  -3.1860561e-01   3.1184840e-01   1.2214442e-01   1.4594446e-01
  -1.6222451e-03   1.0751564e-02   1.0528837e-02  -6.0403813e-02   1.3379133e-02   1.5028440e-01   6.1446063e-03  -1.3119971e-01   3.2380917e-01  -1.5864172e-01  -1.9457339e-01   9.5011505e-02  -4.7572543e-02   2.2681527e-01   1.0293700e-01  -1.5566201e-02  -8.8072506e-02   9.5544371e-02   1.8421729e-01   2.0680707e-02  -3.5448470e-01   3.4877853e-01   6.0133580e-01   3.8249593e-01
   5.6560528e-04   4.0006359e-03   9.2600035e-03  -4.1591371e-03  -1.9224921e-03   3.3243515e-02  -4.1426542e-02   1.9082578e-02  -1.4792018e-02   4.0370786e-02  -1.6927850e-02  -2.8035876e-02   1.4812666e-01  -1.9138185e-02  -2.1713014e-01   1.4873980e-01   9.4405620e-02   2.4556225e-01   1.3593979e-01  -1.1388572e-01   9.5880595e-02   2.4171202e-01  -7.0147712e-02  -3.6688459e-02
  -7.9326756e-03  -6.3990074e-03  -1.0456594e-02   4.6005997e-02  -1.1128633e-03   1.1780265e-02   1.5159273e-02   2.5943199e-02   8.2375650e-04  -9.1398358e-02   8.3957266e-02   2.8883504e-02   2.7903714e-01  -1.6511387e-01  -6.6795048e-02   1.9938753e-01   1.3259659e-01   3.0006788e-01   2.4749904e-01   1.1053233e-01  -1.9160728e-01   5.2974498e-02  -1.4927099e-01   1.9261065e-02
   1.0711618e-02   9.7593304e-04  -2.2273203e-03   2.9228508e-02   2.8543658e-02  -1.0482159e-01   1.8373824e-02   1.2380855e-01  -4.9015113e-02   1.5704666e-01  -9.2830649e-02  -1.6088156e-01  -2.5400968e-01   1.2599728e-01  -3.0500362e-01  -2.1269635e-01   2.1002561e-01  -5.4090438e-02  -1.8471794e-01   1.9759197e-01  -8.7731629e-02   1.1930920e-01  -6.8813979e-02  -2.3214194e-01
  -5.7295413e-03  -2.0320135e-03  -5.2617754e-03   2.1854098e-02   4.9321029e-02   7.3209977e-03   6.2372602e-02   3.3946451e-02   4.1299809e-02  -4.0031650e-02   3.7133968e-02  -1.4894708e-01  -9.5279401e-02   1.5905954e-02  -1.3019775e-01  -6.9685100e-02   6.1839997e-02   9.7852454e-03  -9.4379114e-02   1.1249814e-01  -1.0131785e-01  -3.4605095e-03  -3.9799592e-01   2.8462460e-01
   5.4539243e-03  -1.3254894e-04  -1.3903751e-02  -2.1243180e-02  -1.8241777e-02   4.1663138e-02   4.9292906e-02  -4.1679813e-02   6.5781730e-03   1.0104756e-01   5.4034473e-02   4.7127115e-02  -5.8234731e-03   5.1224365e-02  -2.4524469e-01  -1.4343218e-02  -2.7224749e-01   1.1213449e-01   1.5126621e-01   4.7590309e-02  -2.2307084e-01   7.3848755e-03  -4.2549598e-01   1.3657853e-01
  -2.3530023e-03   1.0382785e-02  -3.1468229e-03  -5.2961974e-03   3.9762472e-02  -5.2072854e-02   6.2457042e-02   9.2145207e-02   4.6113180e-02   8.9843694e-03   6.6716964e-02  -3.1189660e-02   2.6854331e-02   1.5603441e-01   2.1522225e-01  -1.7074853e-01  -5.6809708e-02  -5.8560748e-02  -6.0765312e-02   4.4983432e-02   2.8560275e-01  -4.2294853e-02  -5.2191958e-01   1.9102602e-02
   3.4129371e-03  -1.4367912e-03  -3.3675085e-03   1.2892339e-02   2.4184778e-02   4.0277790e-02  -1.0180244e-02  -1.9075334e-03  -8.5739499e-02   7.4904666e-04  -2.0706005e-02   4.1543142e-02  -2.7887579e-02  -1.6083273e-01   4.7181730e-03  -4.2268196e-02   5.6319426e-02  -3.2226438e-02  -1.6253322e-01  -1.0408733e-01   1.9673946e-01   9.5968652e-02   3.3869793e-01   8.2793469e-02
   2.5438187e-03  -1.1757527e-02  -2.4031068e-03  -2.1099401e-04  -1.9968390e-02   2.3627565e-02  -4.9646019e-02   6.3469056e-02   8.0962825e-02   9.0861852e-02   5.1516142e-02   1.3159900e-01  -4.7924022e-02  -1.7555842e-01  -5.8353659e-02   1.6096495e-01   3.4567199e-01  -3.8516953e-02  -2.9349443e-01   2.1972705e-01   1.4460773e-01  -3.3118650e-01   8.9415500e-01   3.3884268e-02
  -1.3820189e-02  -7.1578305e-03  -1.9483772e-02   3.7517786e-02   8.5971750e-02   8.4545706e-02   1.6172633e-01  -2.2804127e-02   2.0502265e-01  -3.1095264e-01  -3.7651356e-02  -2.6996557e-02   4.4956059e-02   1.9708534e-02  -1.2545675e-01   1.7423351e-02  -9.0976695e-02   3.3048922e-01   2.2419723e-01   1.1435092e-01  -2.8076341e-01   2.6822610e-01   1.3628130e-01   1.7480899e-01
  -1.2570373e-03   1.1644516e-02   7.3687618e-03  -6.4755419e-02   4.2762324e-03   1.5131145e-01  -4.6060873e-03  -1.3117200e-01   3.0808054e-01  -1.4750796e-01  -1.7365234e-01   1.2243983e-01   2.4512815e-02   1.8857966e-01   1.2707794e-01   3.2290245e-02  -8.6595641e-02   1.6493827e-01   2.7625422e-01   5.6630881e-03  -4.0701401e-01   4.3022830e-01   6.9389406e-01   2.9997648e-01
  -8.3801105e-04   3.0808476e-03   4.6429948e-03   1.0346547e-03  -6.8113347e-03   3.6861980e-02  -4.6585504e-02   1.3579016e-02  -1.9419257e-02   3.9114712e-02  -1.0609590e-02  -2.2995093e-02   1.8458448e-01  -4.6738887e-02  -1.6936905e-01   2.1076497e-01   3.5348422e-02   2.2042457e-01   2.1610554e-01  -9.1497319e-02   1.0663718e-01   2.4657584e-01  -9.2673197e-02  -4.7153732e-02
  -7.7795144e-03  -3.2570194e-03  -1.5469978e-02   5.6589232e-02   4.0565810e-03   1.9719662e-03   7.7227544e-03   1.8744977e-02   1.0023585e-02  -5.2140588e-02   7.9576651e-02   2.2870647e-02   2.9399588e-01  -1.4623304e-01  -5.4234918e-02   2.6211500e-01   7.2246917e-02   2.2240448e-01   2.5235822e-01   1.2235681e-01  -1.1786563e-01   5.1933758e-02  -1.3453453e-01  -7.1937503e-03
   1.2701817e-02   1.4716276e-03   2.2352745e-03   3.1502309e-02   3.8695923e-02  -1.0054798e-01  -1.3220620e-03   1.0177461e-01  -5.7097218e-02   1.8377184e-01  -7.1264293e-02  -1.3120200e-01  -2.0548371e-01   1.2317577e-01  -2.5293698e-01  -1.1747186e-01   1.5923484e-01  -6.1692271e-02  -1.9054093e-01   1.1047925e-01   1.4602244e-02   1.3789299e-01   3.8296562e-03  -3.4617731e-01
  -8.2150992e-03  -5.2794410e-03  -9.5183150e-03   2.1235165e-02   3.8130709e-02   4.9318126e-03   7.2114615e-02   4.4096684e-02   3.5686779e-02  -7.6836923e-02   2.2592710e-02  -1.4426401e-01  -1.1344254e-01  -8.3554626e-03  -1.2785400e-01  -1.2120001e-01   1.4724475e-01   5.7548653e-02  -3.6249678e-02   1.6592595e-01  -1.4750088e-01  -8.6614210e-03  -3.9019896e-01   3.8702865e-01
   4.7096688e-03   2.7226309e-03  -4.9731866e-03  -1.5517879e-02  -1.8610157e-02   3.0538438e-02   5.7063226e-02  -3.3455042e-02   1.1411256e-02   9.1919446e-02   4.2180679e-02   3.3188412e-02   7.1443541e-04   8.2019125e-02  -2.4551407e-01  -2.7459607e-02  -1.8811024e-01   1.1536702e-01   1.4446559e-01  -5.7383387e-03  -2.1427562e-01  -1.2663761e-02  -4.7358080e-01   1.8984970e-01
  -2.1735343e-03   1.2136704e-02  -4.5265467e-03  -5.1193119e-03   3.5407560e-02  -6.6190285e-02   5.1495303e-02   9.0320033e-02   4.6899462e-02   1.2583957e-03   9.5689768e-02  -2.5450911e-02   3.5651052e-02   1.9465128e-01   2.1246528e-01  -1.1619614e-01  -4.0129523e-02  -9.7653448e-02  -3.5997995e-02   1.0843556e-01   2.2520886e-01  -1.1483788e-01  -4.2006024e-01   2.0016406e-03
   2.4754387e-03  -3.8612598e-03  -3.5239855e-03   1.2008981e-02   2.0105612e-02   4.2979988e-02  -1.7770928e-02  -3.4294793e-02  -1.0595625e-01  -3.5388882e-02  -6.2794581e-02   2.6474129e-02  -2.7629357e-02  -1.8581627e-01   2.7857517e-02  -3.6409620e-02  -4.4638771e-03  -5.1162919e-03  -1.0939990e-01  -1.3463655e-01   9.4282197e-02   1.6120888e-01   3.0479080e-01  -1.5807256e-02
   1.3405808e-03  -9.5533746e-03  -1.4247205e-03  -5.6062373e-03  -1.0931249e-02  -3.3320729e-03  -5.2207182e-02   5.6649265e-02   1.2569543e-01   8.3287380e-02   2.0529992e-02   8.5978648e-02  -6.0781384e-02  -1.6205888e-01  -4.0345224e-03   1.1721645e-01   3.4068114e-01   2.3764020e-02  -2.5807459e-01   2.3733713e-01   1.4996736e-01  -3.5547713e-01   9.7658199e-01   7.9766384e-02
