  -2.9276400e-02  -2.5651723e-02   2.7501596e-02  -7.7102682e-02  -2.2376244e-01   5.6590269e-02   2.2247548e-01   9.4749415e-02  -3.8204135e-02  -2.1559193e-01  -5.8113116e-02  -1.1496245e-01   7.7353827e-01  -3.4882957e-01   2.6629507e-02   9.2452705e-03   5.1011607e-01  -3.2726218e-01  -9.0729267e-01   8.2058423e-01  -1.6234909e-01  -5.8435255e-03  -8.8472676e-01   1.9500422e-01   9.8896608e-01   5.7014094e-01
  -2.8976477e-02  -3.5248346e-02  -1.9698197e-02   2.0868831e-02  -4.1759628e-02  -5.5727100e-02   1.0971809e-01   3.0750046e-01  -2.5496831e-01   4.2240734e-02   7.9568639e-01  -1.1639969e-01  -9.1093270e-01  -1.0281416e+00  -4.8193842e-01   1.9777887e-01  -5.1393998e-01   3.2821853e-01   5.3673054e-01  -4.2963580e-01  -3.4477728e-01   1.9488026e+00   1.1116004e-02   1.2169366e+00   3.4146504e+00  -1.3282167e+00
   2.2424161e-02   4.1517421e-02  -5.1394170e-02   4.9465075e-02   5.9160217e-02  -6.7006289e-02   9.9300419e-03   3.2749685e-01  -1.6367297e-01  -7.4267013e-02  -1.3587999e-01  -5.2238358e-01   9.7696410e-02  -6.0796934e-01  -9.8832733e-01  -5.6257744e-01   1.8787802e-01   4.3309868e-01  -4.9644449e-01   4.5959041e-01   3.5434758e-01   1.4993007e+00   5.7260075e-01  -4.6710351e-01   2.0293013e+00   1.3177043e+00
   4.7486427e-02   1.2140389e-02   7.5839643e-02   1.5585137e-02   1.1842061e-01   1.4718275e-02  -2.0468145e-01  -7.2369765e-01  -6.0972548e-01  -5.9159208e-01   6.5553367e-01   6.5501553e-01   6.2198277e-01   4.3819327e-01   1.2346724e-01   1.1200654e-01   1.0290548e-01  -1.4540905e-01  -7.0695670e-01  -7.6568415e-01   1.2229371e+00  -7.0681279e-01  -9.3311481e-01   2.2356135e+00   1.5192219e+00   1.3165226e+00
   4.3033708e-02   1.7389577e-02  -2.8690374e-02   4.0632418e-04  -8.5627875e-02  -5.9620463e-02  -5.2390824e-02   4.5503873e-01   1.0148611e-01  -4.0542399e-03   9.2961351e-02  -7.5101913e-01   2.9303422e-02  -2.4381716e-02   3.1192568e-01   3.2156839e-01   2.0891208e+00   5.9442657e-01  -4.6191787e-01   1.7577460e-01  -5.1040188e-01   2.4576913e+00   1.0661032e+00   7.0275785e-01  -5.4470373e-02   9.5575074e-01
   1.6329576e-03   3.8836735e-02  -3.0071919e-02  -5.5597747e-02  -4.1864228e-02   5.6554796e-02   8.4061524e-02  -3.3872706e-01  -3.3281531e-01  -2.2032248e-01   6.8798864e-01   1.9243245e-01   4.5390187e-02  -9.6186776e-01   5.2862604e-01  -1.5353070e-02   3.2174795e-01  -1.0275170e+00   6.0142322e-01   3.0544080e-01   5.7002158e-01   5.4517128e-01   1.8584265e+00  -1.1256133e+00  -1.4689915e+00   2.1902311e+00
  -7.4174855e-02  -2.2681439e-03  -1.1307024e-01   4.0430662e-01   8.9988820e-02  -3.0818741e-02   3.8593676e-01   1.9524249e-01  -1.7314974e-01  -4.4211809e-01  -4.1612119e-01   3.4083086e-01  -1.8149356e-01  -8.5610624e-02   1.3957351e+00  -4.0681667e-01   3.8032764e-01   1.2987651e+00  -3.7691673e-01   5.7743981e-01  -7.8461125e-02  -7.2959365e-01   1.3917147e+00   1.3900436e+00   6.3391936e-01   2.3214027e+00
  -6.2102614e-02  -4.7521853e-02  -1.3660689e-01  -7.4163878e-02   1.1074011e-01   9.0915559e-02  -4.7405606e-01  -5.0699287e-02  -1.8940518e-01  -6.2722448e-01  -4.2839748e-02  -7.6793116e-01  -3.5693312e-01   4.5007265e-01   4.9650993e-01   1.1859585e+00  -6.0274742e-01   1.0481848e+00  -1.3113524e+00  -1.0742338e+00   4.8139905e-01   9.4159197e-01  -1.1909815e+00   1.5245123e+00  -1.3861030e+00  -4.9753108e-01
  -4.8793152e-03   6.9807099e-02  -1.5918660e-01  -3.8040473e-02  -1.4126248e-01   4.4734519e-01   2.4899586e-01  -3.1609360e-01  -3.5525865e-01   7.7433154e-01  -4.5149775e-01  -6.0164382e-01  -7.2859825e-01  -1.6598536e-01   2.2783806e+00   9.8479916e-01   5.1215391e-01   4.4116694e-01  -6.9120413e-01  -5.7988562e-01  -2.9293810e+00  -4.2366244e-02  -3.8118059e-01  -5.1325374e-01   1.1106970e+00   1.3788709e+00
   7.1839917e-02   4.6666871e-03  -2.0744152e-02  -1.4617433e-01   6.6155201e-01  -3.6688970e-01   4.2149721e-01   3.5008967e-01  -1.5700621e-01   1.3888162e+00  -1.3001694e-01   4.9851332e-01   6.9394277e-01   3.9582332e-02  -4.8607284e-01   1.2507244e+00  -5.9101748e-01   4.4101042e-01   1.1268053e+00   2.2321673e+00   1.6594002e+00   1.3340372e+00  -4.1486678e-02  -6.7646467e-01   6.0732355e-01  -4.3801078e-01
  -2.0369232e-02  -2.0381166e-02   2.1811509e-02  -4.4156738e-02  -1.1651202e-01   3.1050262e-02   1.1020089e-01   9.7117541e-02   3.1704838e-03  -8.2122115e-02  -6.6265572e-02  -9.9361424e-02   4.2685507e-01  -1.2657068e-01   1.7404841e-02   5.6251813e-02   3.2550189e-01  -4.7894897e-02  -5.3925752e-01   4.0444569e-01  -8.1339179e-02   9.0245032e-02  -6.7585094e-01   1.9000188e-01   4.9735399e-01   8.0696395e-02
  -1.9987229e-02  -2.1572575e-02  -2.3038078e-02   2.3545258e-02  -2.8396704e-02  -4.5271526e-02   9.8743017e-02   2.9719752e-01  -1.1586274e-01   6.6613971e-02   4.2326826e-01  -1.3128014e-01  -6.0893509e-01  -6.8024228e-01  -4.5466168e-01   6.9189484e-02  -2.9493835e-01   1.9375543e-01   3.0411748e-01  -1.6234622e-01  -1.4356748e-01   1.2238202e+00  -1.3029322e-02   4.6468804e-01   2.1444047e+00  -8.9702537e-01
   1.6049177e-02   2.4548216e-02  -2.9184460e-02   3.8421589e-02   3.4859327e-02  -5.1125091e-02   1.0640770e-02   1.8960112e-01  -1.3202325e-01  -3.8177701e-02   4.4198009e-02  -3.0209019e-01   2.0632838e-02  -3.7119578e-01  -6.8259710e-01  -3.2360519e-01   9.1465961e-02   1.9823125e-01  -3.0677194e-01   2.1157158e-01   2.5579905e-01   9.1550753e-01   2.9809427e-01  -3.5954131e-02   1.3949142e+00   8.0841961e-01
   4.0622940e-02   1.8096589e-02   5.2543235e-02   2.2800775e-02   9.5712018e-02   1.5892030e-02  -1.4458762e-01  -5.3041925e-01  -4.5231198e-01  -4.2743892e-01   3.7127835e-01   4.4225494e-01   5.5543319e-01   3.4721134e-01   7.4302222e-02   9.7909358e-02   1.5675458e-01  -1.0302942e-01  -6.1195055e-01  -4.4056703e-01   1.0164747e+00  -6.0725840e-01  -6.7964633e-01   1.4102126e+00   8.2287115e-01   1.2526395e+00
   1.3212724e-02   3.5394422e-03  -1.2743619e-02  -8.6521682e-03  -5.9206269e-02  -1.5105441e-02  -1.3643320e-02   1.9724803e-01   3.0786311e-02   6.6451320e-03   1.4643073e-02  -2.7842183e-01   1.0861524e-01  -3.8038173e-03   7.6834930e-02   1.2551166e-01   8.5508145e-01   2.0528783e-01  -2.3928653e-01   7.8796600e-02  -2.3869993e-02   9.9451614e-01   1.5551992e-01   3.5337319e-01   4.7029136e-02   4.5340131e-01
   3.2527077e-03   2.9130461e-02  -2.0164253e-02  -3.1615574e-02   1.6938479e-03   3.0390768e-02   2.5899791e-02  -2.2547223e-01  -2.1738853e-01  -1.1903389e-01   4.5882365e-01   1.7113626e-01  -2.2108365e-02  -5.7681546e-01   3.3854344e-01   4.7565932e-02   9.4942828e-02  -5.0785256e-01   3.4067979e-01   2.1212676e-01   4.7492382e-01   4.0924787e-01   1.1779240e+00  -6.5059387e-01  -1.2366505e+00   1.2138152e+00
  -4.3600721e-02  -1.3507098e-02  -5.7820978e-02   2.6776257e-01   8.1684184e-02  -6.1521575e-02   2.3017267e-01   1.6683724e-01  -1.2863344e-01  -2.7521401e-01  -1.8464415e-01   2.0747322e-01  -4.6850898e-02  -1.2474047e-02   6.8754549e-01  -3.6433325e-01   7.4645056e-02   7.2692227e-01  -9.5959144e-02   5.0321831e-01   2.3439511e-01  -4.1959876e-01   8.9652173e-01   9.1315184e-01   2.8767880e-01   1.0526084e+00
  -5.3431055e-02  -3.4239908e-02  -6.1066359e-02  -6.5862066e-02  -1.7940358e-02   7.7115543e-02  -3.2266316e-01  -3.4662043e-02  -1.2564015e-01  -4.4446913e-01  -4.1814639e-02  -4.6539865e-01  -2.9331036e-01   1.6772941e-01   3.1510742e-01   3.1099769e-01  -1.6112555e-02   3.6159191e-01  -7.5685345e-01  -5.4550372e-01  -2.0160439e-01   3.3518699e-01  -3.2816943e-01   4.9312756e-01  -4.9109023e-01  -2.0603848e-01
  -7.4162908e-03   3.4077472e-02  -9.6487621e-02  -7.2508110e-02  -8.2909951e-02   2.5143463e-01   1.3041470e-01  -1.9556922e-01  -2.1747961e-01   5.6952043e-01  -1.5288157e-01  -2.9378161e-01  -4.5781786e-01   4.0678769e-02   1.2238653e+00   4.2765521e-01   2.6961980e-01   1.8748798e-01  -3.7487612e-01  -4.0082383e-01  -1.6382170e+00  -2.8205062e-02  -5.3031731e-01  -3.2363821e-01   6.0581459e-01   6.8451321e-01
   5.9895038e-02  -2.9607291e-03   9.7439784e-03  -1.0389855e-01   4.4042256e-01  -2.4342789e-01   3.2418437e-01   7.4357733e-02  -2.3132655e-02   7.7682029e-01   7.1288777e-02   4.4784283e-01   4.0964324e-01  -2.7297927e-01  -3.4563718e-01   4.6926243e-01  -3.9621490e-01   1.1064850e-01   4.5594808e-01   9.0720732e-01   4.9538944e-01   2.8236474e-01   3.1052712e-01  -2.6897303e-01   6.1397832e-01   6.2290003e-02
  -1.4472030e-02  -1.4973483e-02   1.4711715e-02  -2.1268274e-02  -3.7167366e-02   1.6342901e-02   3.2470029e-02   6.5789748e-02   1.8828449e-02   6.3519845e-03  -6.3047039e-02  -5.4900465e-02   1.7896728e-01  -6.3445776e-03   1.6422155e-02   6.8437812e-02   1.2977168e-01   8.1652517e-02  -2.2522343e-01   1.0071881e-01  -3.7065199e-03   6.8871361e-02  -4.6933955e-01   1.1406338e-01   1.1667157e-01  -2.0038486e-01
  -1.1219088e-02  -1.0825608e-02  -2.2056696e-02   2.4099851e-02  -1.6209781e-02  -3.4244919e-02   7.9511290e-02   2.5005561e-01  -2.6910953e-02   6.1905649e-02   1.7809598e-01  -1.1851277e-01  -3.5927943e-01  -3.9944604e-01  -3.9739593e-01  -1.8563698e-02  -1.2679123e-01   7.2363959e-02   1.0664635e-01  -1.1855592e-03   6.4222450e-03   6.3108312e-01  -4.1463552e-02  -1.8933032e-02   1.1575293e+00  -5.0495900e-01
   9.9478824e-03   1.1216100e-02  -1.4380552e-02   2.9904338e-02   1.4935137e-02  -3.8768296e-02   1.5126395e-02   9.3432595e-02  -9.4384293e-02  -1.3514559e-03   1.4586024e-01  -1.4538130e-01  -3.9454076e-02  -1.9108635e-01  -4.5636221e-01  -1.6003722e-01   1.3191239e-02   3.9425265e-02  -1.5974461e-01   3.2483589e-02   1.6221078e-01   4.3890795e-01   9.3534630e-02   2.1308880e-01   8.4804086e-01   4.0828456e-01
   3.5225317e-02   2.2662337e-02   3.4986182e-02   2.5900181e-02   7.6334472e-02   1.5726786e-02  -9.4989322e-02  -3.7818786e-01  -3.1875670e-01  -2.9683021e-01   1.5060868e-01   2.6402680e-01   5.0828066e-01   2.6796985e-01   4.1166828e-02   8.1950924e-02   2.1015991e-01  -8.4147707e-02  -5.3798482e-01  -1.7294559e-01   8.1692182e-01  -5.3251292e-01  -4.3113587e-01   7.4204591e-01   2.2492988e-01   1.2322253e+00
  -6.3495572e-03  -6.3518557e-03  -1.4818956e-03  -1.5082345e-02  -4.1682207e-02   1.1717620e-02   1.6968691e-02   3.6388564e-02  -1.0209908e-02   8.5264143e-03  -3.8360460e-02   2.2950218e-02   1.7238209e-01   3.4891985e-03  -5.8904498e-02  -6.3440866e-03   7.9202719e-02  -3.1977004e-02  -1.2313006e-01   4.7801026e-02   2.2895794e-01   1.7986254e-02  -3.9583720e-01   1.1139414e-01   1.1227132e-01   1.1576023e-01
   4.7373325e-03   2.2317596e-02  -1.3075940e-02  -1.1089218e-02   3.8072788e-02   9.9960253e-03  -1.8197680e-02  -1.3462924e-01  -1.2403858e-01  -3.8329616e-02   2.6418754e-01   1.4468269e-01  -7.4919009e-02  -2.7642855e-01   1.8022488e-01   7.6265240e-02  -6.7532793e-02  -1.1513592e-01   1.5241920e-01   1.3217567e-01   3.8512363e-01   2.9583417e-01   6.8389614e-01  -3.1591939e-01  -1.0175648e+00   4.7254997e-01
  -1.9139658e-02  -2.1288888e-02  -1.9288197e-02   1.5864801e-01   7.9587378e-02  -8.1498732e-02   1.1218424e-01   1.3931201e-01  -9.1903950e-02  -1.4207628e-01  -2.1022162e-02   1.0062041e-01   5.8989824e-02   3.9754953e-02   1.5584622e-01  -2.7327479e-01  -1.5337818e-01   3.0252288e-01   9.6540152e-02   4.1434491e-01   4.6445846e-01  -1.5994770e-01   4.4991529e-01   5.4828941e-01   2.5448898e-02   1.1792174e-01
  -4.2135311e-02  -2.3948036e-02  -1.3788645e-02  -5.8282843e-02  -8.5748297e-02   5.4219518e-02  -2.1092451e-01   8.5703143e-03  -8.6359353e-02  -2.4909899e-01  -5.0772559e-02  -2.2690277e-01  -1.9768187e-01   5.2585949e-02   1.1820331e-01  -1.9906225e-01   2.9722350e-01  -1.0184914e-01  -2.6001939e-01  -1.1058949e-01  -3.8177608e-01  -2.1972244e-02   6.4316719e-02  -1.8190510e-01   1.8040073e-02  -6.9648680e-02
  -9.0567817e-03   5.4858776e-03  -5.0274361e-02  -9.1795991e-02  -3.2823365e-02   1.0085224e-01   4.6198629e-02  -9.7374514e-02  -1.0811733e-01   3.8867879e-01   5.9915985e-02  -5.5429061e-02  -2.4377423e-01   1.8486952e-01   4.3227170e-01   1.9948797e-02   8.9989695e-02  -4.3884179e-03  -1.5103609e-01  -2.6801986e-01  -6.1445484e-01  -2.1545248e-02  -6.0948785e-01  -1.5307664e-01   1.8991981e-01   1.8234864e-01
   5.0579774e-02  -5.3751247e-03   2.5708247e-02  -6.3703119e-02   2.6537476e-01  -1.4339719e-01   2.2351358e-01  -1.0451865e-01   6.7429243e-02   3.1364238e-01   1.9180670e-01   3.4475965e-01   2.0575045e-01  -4.1250227e-01  -2.1433624e-01  -1.6449671e-02  -2.8351619e-01  -8.2509932e-02   2.7000852e-02  -5.2626680e-03  -1.6685484e-01  -3.3461212e-01   4.0264845e-01   4.6800372e-02   4.5903730e-01   3.0906000e-01
  -1.0631371e-02  -9.8144911e-03   7.3560973e-03  -7.0440399e-03   1.6102624e-02   9.1856794e-03  -1.6101091e-02   1.8695932e-02   1.7101704e-02   5.6425815e-02  -5.0456198e-02  -9.4987153e-04   1.6814431e-02   3.7473734e-02   2.3866677e-02   5.7994234e-02  -3.9468429e-02   1.0713270e-01   1.7083090e-02  -9.6170089e-02   5.2197626e-02  -1.0524564e-02  -2.7103525e-01   8.4097803e-03  -1.5849425e-01  -3.1720988e-01
  -3.2316239e-03  -2.9085254e-03  -1.8415319e-02   2.3498152e-02  -5.3054764e-03  -2.3551536e-02   5.5914816e-02   1.8128140e-01   2.1282558e-02   3.9859922e-02   3.4335879e-02  -8.8320657e-02  -1.6423420e-01  -1.8298921e-01  -3.2410727e-01  -7.1177180e-02  -1.0952496e-02  -2.6441384e-02  -4.9843778e-02   7.7270105e-02   1.1348956e-01   1.7371839e-01  -7.6140483e-02  -2.8586485e-01   4.3231480e-01  -1.6918040e-01
   4.6337813e-03   1.4859027e-03  -5.4327225e-03   2.3455939e-02  -2.6694386e-04  -3.0065403e-02   2.1237867e-02   3.1108451e-02  -5.6130696e-02   2.9931225e-02   1.8970860e-01  -4.3394508e-02  -8.0550590e-02  -6.4899589e-02  -2.9881846e-01  -6.0933875e-02  -4.3699422e-02  -5.7456655e-02  -5.6937483e-02  -8.6886614e-02   7.8194353e-02   7.2358155e-02  -4.1749521e-02   3.2269462e-01   4.0099424e-01   1.1598006e-01
   3.0994315e-02   2.5842923e-02   2.2571735e-02   2.5802371e-02   6.0352799e-02   1.4834219e-02  -5.6960790e-02  -2.6550467e-01  -2.1061971e-01  -1.9827372e-01  -7.1321536e-03   1.2183502e-01   4.7357007e-01   2.0248486e-01   2.3375767e-02   6.5669171e-02   2.5498096e-01  -8.0150786e-02  -4.8296164e-01   2.9506787e-02   6.3096984e-01  -4.7567840e-01  -2.0302538e-01   2.3916795e-01  -2.6069710e-01   1.2367500e+00
  -1.7178480e-02  -1.2432756e-02   5.7197382e-03  -1.8627696e-02  -3.0901032e-02   2.4632818e-02   3.7880906e-02  -4.6167017e-02  -2.8482524e-02   5.5905243e-03  -6.9295347e-02   1.8395076e-01   2.1672228e-01   3.5108743e-03  -1.1630733e-01  -8.1017176e-02  -3.2365491e-01  -1.4591613e-01  -8.2503464e-02   5.2675332e-02   3.0822599e-01  -5.3292457e-01  -6.6296164e-01  -3.3085515e-02   1.4267196e-01  -8.3723810e-02
   6.1873726e-03   1.8111449e-02  -8.4999104e-03   5.5088233e-03   6.5957055e-02  -4.8437986e-03  -4.9315506e-02  -6.6899367e-02  -5.3478197e-02   2.1150383e-02   1.0816311e-01   1.1628101e-01  -1.1079149e-01  -5.5970058e-02   5.5991489e-02   7.6488834e-02  -1.6806234e-01   1.5546250e-01   2.7622140e-02   7.0335164e-02   2.9982620e-01   2.0333871e-01   3.5478025e-01  -9.8534057e-02  -8.1384841e-01  -4.4149580e-02
  -6.3318149e-04  -2.5388451e-02   5.4020372e-03   7.5304503e-02   7.9584602e-02  -9.0150983e-02   2.8289983e-02   1.0900321e-01  -6.1941333e-02  -4.3011970e-02   8.4679825e-02   1.5503350e-02   1.3254523e-01   6.6091228e-02  -2.0788346e-01  -1.5231016e-01  -3.0336429e-01   7.7847810e-03   2.0703993e-01   3.1086966e-01   5.9037657e-01   4.6798659e-02   8.2050138e-02   2.7260643e-01  -1.4797414e-01  -5.1567519e-01
  -3.0237276e-02  -1.5662139e-02   9.7477749e-03  -5.0316449e-02  -1.0365020e-01   2.7803932e-02  -1.2595230e-01   5.8702534e-02  -6.4707968e-02  -6.4286675e-02  -6.4920695e-02  -4.9398736e-02  -9.7125655e-02   4.1974453e-02  -5.1246114e-02  -4.0715744e-01   4.0511490e-01  -3.4925532e-01   1.3035029e-01   2.1313983e-01  -2.5644372e-01  -1.8197876e-01   1.6083652e-01  -5.5289324e-01   2.4941072e-01  -1.0100401e-02
  -1.0021546e-02  -1.5557822e-02  -1.8888088e-02  -9.7745032e-02   6.1781365e-03  -6.4678373e-03  -7.6946714e-03  -2.3182972e-02  -2.6408646e-02   2.3421005e-01   1.9433440e-01   1.1635500e-01  -8.4130118e-02   2.6958827e-01  -1.1156066e-01  -2.5282703e-01  -2.7254324e-02  -1.3716752e-01  -6.6287031e-03  -1.7155048e-01   1.4064669e-01  -2.1357622e-02  -6.1728217e-01  -1.5834486e-02  -1.2704116e-01  -1.4178916e-01
   4.2874691e-02  -3.7241647e-03   2.9493979e-02  -2.7129126e-02   1.3532472e-01  -6.6185230e-02   1.3004629e-01  -2.0346173e-01   1.2145153e-01  -1.7360588e-02   2.4427451e-01   2.0765678e-01   6.7876826e-02  -4.2713877e-01  -8.7679121e-02  -2.4857028e-01  -2.2882486e-01  -1.5016700e-01  -2.1773099e-01  -5.6777492e-01  -4.5667653e-01  -5.9556113e-01   3.2342890e-01   2.7472754e-01   2.1384733e-01   3.7853709e-01
  -8.0740668e-03  -5.2089166e-03   6.6741907e-04   1.4021013e-04   4.6558216e-02   6.7351469e-03  -4.1335189e-02  -3.0058180e-02   5.3039326e-03   7.6033376e-02  -3.1144488e-02   4.8211256e-02  -7.5164548e-02   2.9405979e-02   3.7606287e-02   3.5653529e-02  -1.5949988e-01   6.8873558e-02   1.8087486e-01  -1.9942622e-01   7.8434224e-02  -1.0016601e-01  -8.8677861e-02  -9.5358878e-02  -3.3758548e-01  -3.1580215e-01
   3.5899923e-03   2.3947185e-03  -1.3484546e-02   2.2430270e-02   4.2265060e-03  -1.4002920e-02   3.1530596e-02   1.0428981e-01   3.8521879e-02   1.0460192e-02  -3.3308363e-02  -5.0315528e-02  -2.2073590e-02  -2.6727874e-02  -2.4714926e-01  -9.5772768e-02   5.5888178e-02  -9.7602180e-02  -1.6279691e-01   9.6604204e-02   1.8480090e-01  -1.5286195e-01  -1.1475176e-01  -3.9067329e-01  -6.2279614e-02   1.0121178e-01
   4.4676245e-04  -4.8595246e-03  -8.9425900e-04   1.8724544e-02  -1.0703717e-02  -2.4729887e-02   2.7174829e-02  -5.0951624e-03  -2.1640302e-02   5.1573429e-02   1.9446302e-01   1.3682991e-02  -1.0267999e-01   1.2971088e-02  -1.9747332e-01  -1.2946776e-02  -7.9030822e-02  -1.0589641e-01   3.3463968e-03  -1.5745616e-01   7.6579873e-03  -1.8689842e-01  -1.1452278e-01   3.3366012e-01   5.9071802e-02  -7.6812301e-02
   2.7610469e-02   2.7711500e-02   1.4515931e-02   2.3450670e-02   4.7724329e-02   1.3661647e-02  -3.0582991e-02  -1.8844014e-01  -1.2769114e-01  -1.2844651e-01  -1.0654806e-01   1.4645331e-02   4.4529062e-01   1.5178246e-01   1.8518379e-02   4.9984605e-02   2.8533264e-01  -8.3324220e-02  -4.4289903e-01   1.6562148e-01   4.6462872e-01  -4.3058804e-01  -6.6215569e-03  -1.0304166e-01  -6.2741344e-01   1.2491451e+00
  -2.1167221e-02  -1.5163014e-02   9.5242105e-03  -1.9530004e-02  -2.4761526e-02   2.7561402e-02   4.8940333e-02  -7.0846596e-02  -3.0816497e-02   1.1531552e-03  -8.2278476e-02   2.3843834e-01   2.4056584e-01   4.1980604e-04  -1.1734354e-01  -1.0849450e-01  -4.4747784e-01  -1.6790322e-01  -8.8527090e-02   7.0174398e-02   2.7308544e-01  -7.4218132e-01  -7.2272671e-01  -9.6363366e-02   1.4219881e-01  -1.7485897e-01
   7.6903627e-03   1.6112521e-02  -5.9988669e-03   1.8008702e-02   8.4795427e-02  -1.4668136e-02  -6.9091631e-02  -2.1217719e-02  -4.8778737e-03   6.0054340e-02  -7.6769533e-03   8.8794120e-02  -1.2976835e-01   9.2724124e-02  -3.4257111e-02   5.4755645e-02  -2.1300870e-01   3.1549865e-01  -4.4368450e-02   2.8891966e-02   2.1928901e-01   1.3059667e-01   1.6388197e-01   2.7958482e-02  -6.2659961e-01  -3.5924990e-01
   1.2275798e-02  -2.6029993e-02   1.9435157e-02   1.5133212e-02   7.8148034e-02  -8.8171483e-02  -2.6470056e-02   7.4414155e-02  -3.7513089e-02   2.3591634e-02   1.4358217e-01  -5.0863281e-02   1.7339811e-01   6.5588142e-02  -4.2233154e-01  -2.3131846e-02  -3.7932132e-01  -1.8083100e-01   2.4786394e-01   1.9575205e-01   6.0527173e-01   1.9862704e-01  -1.8984944e-01   6.4711507e-02  -2.3481540e-01  -8.9005906e-01
  -1.9536753e-02  -8.9737558e-03   1.6166920e-02  -4.1823610e-02  -8.6945143e-02   2.8110542e-03  -5.8470638e-02   9.8973431e-02  -5.3480188e-02   8.9299491e-02  -7.7364106e-02   7.5186407e-02  -1.3559663e-02   7.8210301e-02  -1.6811456e-01  -4.0437488e-01   3.7880360e-01  -4.1659631e-01   3.8575509e-01   4.1558994e-01  -1.0637510e-02  -2.0970563e-01   1.2171792e-01  -6.8661736e-01   3.1078023e-01   2.9111116e-02
  -1.0520700e-02  -2.9234708e-02  -1.0453016e-04  -9.2880920e-02   3.2588030e-02  -7.4713886e-02  -3.6301503e-02   2.7269190e-02   2.9753026e-02   1.0759416e-01   2.6129625e-01   2.2782670e-01   2.5629081e-02   3.0195309e-01  -4.3558873e-01  -4.1168218e-01  -8.7129067e-02  -2.1747329e-01   7.3761560e-02  -1.0173542e-01   6.4189520e-01  -2.7641386e-02  -5.5937766e-01   8.0181031e-02  -3.4344643e-01  -3.1152690e-01
   3.5819097e-02   5.8911769e-04   2.4922421e-02   4.1948135e-03   4.4861915e-02  -9.8879724e-03   5.1091747e-02  -2.4176360e-01   1.4683970e-01  -2.3787526e-01   2.4512871e-01   5.5951795e-02  -1.9869270e-02  -3.6445161e-01   3.3825259e-02  -2.9194065e-01  -2.0524209e-01  -1.2015089e-01  -3.3265192e-01  -8.5047619e-01  -5.0862373e-01  -5.9320981e-01   1.6288571e-01   4.1720720e-01  -5.2607465e-02   3.3859656e-01
  -6.2372855e-03  -1.3749306e-03  -4.6999157e-03   1.9995427e-03   5.8470345e-02   6.6967621e-03  -4.9033969e-02  -7.0606297e-02  -1.0551577e-02   7.3675877e-02  -8.1181368e-03   8.3498416e-02  -1.1350185e-01  -8.6097881e-03   5.4008318e-02   1.0132056e-02  -2.2143119e-01   7.9739260e-05   2.6886187e-01  -2.2736972e-01   7.5535964e-02  -1.6654354e-01   6.9543633e-02  -1.7602235e-01  -4.3331335e-01  -2.4047773e-01
   9.0359975e-03   5.4014773e-03  -8.3142160e-03   2.1332684e-02   1.2312395e-02  -6.2293829e-03   9.3261108e-03   2.9939682e-02   3.4280960e-02  -1.8534717e-02  -4.8144667e-02  -1.2771851e-02   7.2191248e-02   7.4867430e-02  -1.7639311e-01  -1.0003011e-01   8.0709775e-02  -1.3999780e-01  -2.3307137e-01   7.8658657e-02   2.2640267e-01  -3.5984121e-01  -1.5236438e-01  -3.8589091e-01  -3.6371488e-01   3.0450247e-01
  -2.4430686e-03  -8.1999417e-03   5.1733681e-04   1.5444994e-02  -1.6608154e-02  -2.2180675e-02   3.1599897e-02  -2.2257570e-02   5.9365945e-03   6.1711943e-02   1.7605901e-01   3.5818041e-02  -1.0758865e-01   5.0166065e-02  -1.3935659e-01  -1.7645766e-03  -9.5105675e-02  -1.1834489e-01   2.5853970e-02  -1.9062215e-01  -4.6690384e-02  -3.4679547e-01  -1.3609210e-01   2.8242000e-01  -1.7915896e-01  -1.8346368e-01
   2.4765603e-02   2.8398844e-02   9.9397040e-03   1.9726464e-02   3.8318083e-02   1.2481498e-02  -1.5061255e-02  -1.4125070e-01  -6.8216712e-02  -8.2724928e-02  -1.5540904e-01  -6.0636271e-02   4.1887847e-01   1.1586402e-01   2.2907186e-02   3.5088345e-02   2.9810690e-01  -8.7388014e-02  -4.1283557e-01   2.3985394e-01   3.2256498e-01  -3.9212204e-01   1.5137585e-01  -3.0028095e-01  -8.7607588e-01   1.2549853e+00
  -2.0360026e-02  -1.5236022e-02   1.0627568e-02  -1.8390973e-02  -2.1498501e-02   2.4201725e-02   5.1193403e-02  -5.7823148e-02  -2.3378680e-02  -2.3788148e-03  -8.1797657e-02   2.2008727e-01   2.4538257e-01  -3.6307958e-03  -8.2915460e-02  -1.0087768e-01  -3.8529741e-01  -1.2947283e-01  -1.1655489e-01   8.4822525e-02   1.7646228e-01  -7.0546419e-01  -6.4742822e-01  -9.9242484e-02   1.1707143e-01  -1.8794600e-01
   9.3102579e-03   1.5862042e-02  -5.0713481e-03   2.6537425e-02   9.4793473e-02  -2.0237864e-02  -7.9506273e-02   4.9723785e-03   2.3916716e-02   8.0265004e-02  -8.4366385e-02   6.4543282e-02  -1.3377207e-01   1.8043007e-01  -9.2809368e-02   1.7997289e-02  -2.1201376e-01   3.8189611e-01  -7.4737898e-02   7.8662937e-03   1.4478943e-01   7.6621521e-02   8.1441854e-02   9.0416218e-02  -4.5618404e-01  -5.0517072e-01
   2.0164686e-02  -2.3780003e-02   2.5902887e-02  -2.5108540e-02   7.2820089e-02  -7.7320751e-02  -5.7869609e-02   3.6195390e-02  -1.7450794e-02   6.1411442e-02   1.6686549e-01  -1.0028631e-01   1.8430648e-01   4.1348794e-02  -5.1355911e-01   9.4131106e-02  -3.8973723e-01  -2.8930588e-01   2.3577124e-01   7.4626161e-02   5.1798353e-01   2.9574921e-01  -3.6301421e-01  -9.4019663e-02  -2.4514228e-01  -1.0531284e+00
  -1.1275971e-02  -3.9309210e-03   1.2691784e-02  -3.3396164e-02  -5.2216677e-02  -1.7229833e-02  -3.3258812e-03   1.1886870e-01  -4.6371683e-02   1.9749476e-01  -8.1563335e-02   1.5793265e-01   3.9831108e-02   1.1626730e-01  -2.2564859e-01  -2.9044831e-01   2.8344460e-01  -3.5958138e-01   5.0186260e-01   4.9919073e-01   2.1214918e-01  -1.7112782e-01   6.8818824e-02  -6.5603744e-01   2.9317231e-01   7.8748584e-02
  -1.0719341e-02  -3.6223320e-02   8.6205074e-03  -8.0117398e-02   4.6252134e-02  -1.0968186e-01  -4.5250306e-02   5.5955090e-02   6.3492482e-02   9.3103911e-03   2.7404432e-01   2.8770805e-01   9.1894432e-02   2.9220928e-01  -5.7710657e-01  -4.8111569e-01  -9.8392645e-02  -2.5455050e-01   1.0661913e-01  -4.9878903e-02   9.1818713e-01  -4.0767695e-02  -4.4754087e-01   1.3324497e-01  -4.6551910e-01  -3.5710632e-01
   2.8724548e-02   6.0550462e-03   1.6371493e-02   2.8768539e-02  -1.4126662e-02   2.8091018e-02  -9.7870651e-03  -2.3821821e-01   1.5156650e-01  -3.7101087e-01   2.1210918e-01  -9.1668813e-02  -7.1936866e-02  -2.6570846e-01   1.4430105e-01  -2.2150077e-01  -1.8824982e-01  -3.1498206e-02  -3.6274085e-01  -9.2312335e-01  -4.4077633e-01  -4.2402215e-01  -4.1531409e-03   4.7666039e-01  -2.8370804e-01   2.4284085e-01
  -4.7710720e-03   1.5541734e-03  -8.3647269e-03   2.1129506e-04   5.6640637e-02   7.3746970e-03  -4.4598901e-02  -9.7289013e-02  -2.5913075e-02   5.7657270e-02   1.5583758e-02   1.0062887e-01  -1.1430236e-01  -5.8351952e-02   6.8826242e-02  -1.2239775e-02  -2.2788527e-01  -7.4115826e-02   2.9112879e-01  -2.0083221e-01   5.0019354e-02  -1.9112007e-01   1.9642714e-01  -2.2244584e-01  -4.6067212e-01  -1.3063966e-01
   1.3058023e-02   6.5077716e-03  -3.6381087e-03   2.0431496e-02   1.8894749e-02  -6.1964133e-04  -8.5430090e-03  -3.3895080e-02   1.7080804e-02  -4.1795768e-02  -3.0374562e-02   1.7879227e-02   1.2585778e-01   1.2859918e-01  -1.1868743e-01  -9.1341067e-02   7.2840654e-02  -1.5568593e-01  -2.6465451e-01   4.2103267e-02   2.4340358e-01  -4.6350018e-01  -1.8311337e-01  -3.1810157e-01  -5.1267143e-01   4.4514222e-01
  -4.0188586e-03  -9.0454344e-03  -1.1642431e-04   1.3414007e-02  -1.8449839e-02  -2.1676841e-02   3.3696169e-02  -2.6453061e-02   2.4784050e-02   6.0539884e-02   1.4710432e-01   3.2457931e-02  -9.8307142e-02   5.5449372e-02  -1.1212396e-01  -1.3537714e-02  -9.5904372e-02  -1.0595823e-01   1.7815002e-02  -1.9720301e-01  -8.3715808e-02  -4.1961474e-01  -1.2049498e-01   1.9915572e-01  -3.2114984e-01  -2.2033478e-01
   2.2191922e-02   2.8081337e-02   7.9557558e-03   1.5388017e-02   3.1934358e-02   1.1409354e-02  -8.9108070e-03  -1.1710740e-01  -2.9251623e-02  -5.5779297e-02  -1.6366427e-01  -1.0856166e-01   3.9146070e-01   9.3785072e-02   3.2146175e-02   2.0497780e-02   2.9306720e-01  -8.7851156e-02  -3.8768960e-01   2.6098965e-01   2.0762414e-01  -3.5643231e-01   2.6882641e-01  -3.7669070e-01  -1.0144818e+00   1.2434140e+00
  -1.6738619e-02  -1.3482288e-02   9.7409371e-03  -1.6020202e-02  -1.9838085e-02   1.7725845e-02   4.6555150e-02  -2.5189822e-02  -1.1373428e-02  -3.5606307e-03  -7.2249482e-02   1.5958970e-01   2.3465382e-01  -8.2446297e-03  -3.1307398e-02  -7.1174104e-02  -2.2088227e-01  -5.9790748e-02  -1.4760765e-01   8.8704099e-02   6.1346556e-02  -5.1882685e-01  -4.9969746e-01  -6.4488234e-02   7.5001199e-02  -1.5142147e-01
   1.1077930e-02   1.6891454e-02  -5.2127685e-03   3.1484200e-02   9.6834068e-02  -2.2430326e-02  -8.2671352e-02   1.5325085e-02   3.6077350e-02   8.4716247e-02  -1.2537366e-01   4.5170923e-02  -1.2605351e-01   2.1954355e-01  -1.2369665e-01  -2.6857825e-02  -1.7697113e-01   3.7521004e-01  -7.4263948e-02   5.3755803e-03   7.8383806e-02   4.0314741e-02   7.6866742e-02   1.1353862e-01  -3.0257154e-01  -5.2024526e-01
   2.3804905e-02  -1.9412488e-02   2.7481272e-02  -4.8986568e-02   6.2516443e-02  -6.0093044e-02  -7.1915116e-02  -3.2807005e-03  -8.4029700e-04   7.5911482e-02   1.6485010e-01  -1.3402542e-01   1.7071746e-01  -1.3860492e-04  -5.1157065e-01   1.8461811e-01  -3.4709703e-01  -3.4257913e-01   1.8971829e-01  -4.5067785e-02   3.5133086e-01   3.4174945e-01  -4.4789659e-01  -2.1837640e-01  -1.9608434e-01  -1.0551924e+00
  -5.9643637e-03  -8.0871845e-04   5.7207095e-03  -2.5964239e-02  -1.4337142e-02  -3.0557560e-02   4.1034039e-02   1.1521678e-01  -3.8925186e-02   2.5493825e-01  -7.3412321e-02   2.1047831e-01   5.9827396e-02   1.2831226e-01  -2.3216733e-01  -1.5426597e-01   1.7064146e-01  -2.4095601e-01   4.9701820e-01   4.8053396e-01   3.2712506e-01  -1.2210574e-01   7.2060884e-02  -5.3112075e-01   2.5992435e-01   1.4571442e-01
  -1.0721241e-02  -3.7569754e-02   9.9074919e-03  -6.2451992e-02   4.8277065e-02  -1.1817156e-01  -4.0317688e-02   6.6164087e-02   7.8591769e-02  -6.1215601e-02   2.4690614e-01   3.0621740e-01   1.2240326e-01   2.5252859e-01  -5.7876021e-01  -4.8615367e-01  -7.2535391e-02  -2.5876755e-01   1.0809975e-01  -8.8828130e-03   1.0091986e+00  -6.0843087e-02  -2.9786481e-01   1.4719139e-01  -5.0601334e-01  -3.1218350e-01
   2.1305448e-02   1.1257662e-02   7.8360534e-03   4.5494929e-02  -5.0577302e-02   5.0576504e-02  -5.2515430e-02  -2.0896126e-01   1.4272969e-01  -4.3825390e-01   1.6186606e-01  -2.1917980e-01  -9.9442036e-02  -1.6185351e-01   2.3408774e-01  -1.0861436e-01  -1.5998281e-01   7.3112495e-02  -3.4054627e-01  -8.4892296e-01  -3.3945911e-01  -1.7755791e-01  -1.2926274e-01   4.5782223e-01  -4.4237156e-01   1.2841401e-01
  -3.5142497e-03   3.5232959e-03  -1.0198202e-02  -3.6917055e-03   4.5919384e-02   7.6635839e-03  -3.2760864e-02  -1.0821684e-01  -3.7725911e-02   3.5414702e-02   3.7191963e-02   9.9330700e-02  -9.2101945e-02  -1.0600152e-01   7.8031255e-02  -2.7645635e-02  -1.8984382e-01  -1.3683363e-01   2.6264430e-01  -1.4072688e-01   1.1702529e-02  -1.6923989e-01   2.8696103e-01  -2.3231597e-01  -4.3585907e-01  -1.8264390e-02
   1.5741380e-02   6.1611299e-03   9.4088576e-05   1.9795163e-02   2.3933082e-02   2.7032576e-03  -2.0823857e-02  -8.2414462e-02  -5.9615423e-03  -5.6377957e-02   3.6276494e-03   3.7318575e-02   1.4750103e-01   1.4230270e-01  -7.7677143e-02  -7.6094677e-02   4.2622575e-02  -1.4898178e-01  -2.6406807e-01   1.5322983e-03   2.4025884e-01  -4.8346587e-01  -2.0171503e-01  -2.2515963e-01  -5.4985335e-01   5.3208139e-01
  -4.3908004e-03  -7.9935266e-03  -1.9281510e-03   1.2464272e-02  -1.6884716e-02  -2.2448022e-02   3.3167863e-02  -2.2545487e-02   3.4397759e-02   4.9935536e-02   1.1671110e-01   1.2023258e-02  -7.8642220e-02   3.7826963e-02  -1.0493832e-01  -3.6101560e-02  -8.6206335e-02  -7.8418511e-02  -1.1890977e-02  -1.8664520e-01  -1.0400987e-01  -4.2085576e-01  -8.2633856e-02   1.0667022e-01  -3.7929557e-01  -2.0484479e-01
   1.9684681e-02   2.6967944e-02   7.7402191e-03   1.1034802e-02   2.8321764e-02   1.0442857e-02  -1.0183386e-02  -1.0884819e-01  -7.0922733e-03  -4.2163441e-02  -1.4236273e-01  -1.3448522e-01   3.6184964e-01   8.3820918e-02   4.1750104e-02   5.2609277e-03   2.7254986e-01  -8.2150188e-02  -3.6299872e-01   2.4061888e-01   1.2059832e-01  -3.2103530e-01   3.4762350e-01  -3.6157508e-01  -1.0562519e+00   1.2076761e+00
  -1.2036699e-02  -1.0764860e-02   7.5592259e-03  -1.3282910e-02  -1.9024314e-02   1.0572056e-02   3.7420358e-02   1.2428417e-02   1.1841976e-03  -1.8274765e-03  -5.7558762e-02   8.2531719e-02   2.1315677e-01  -1.4244319e-02   2.2850334e-02  -3.1909975e-02  -2.2707644e-02   1.6460910e-02  -1.6899796e-01   8.0328520e-02  -4.1236781e-02  -2.6863417e-01  -3.2915009e-01  -1.4014007e-02   2.4149807e-02  -9.0025896e-02
   1.2984484e-02   1.8762865e-02  -5.9643994e-03   3.3442509e-02   9.2336533e-02  -2.2143472e-02  -8.0644471e-02   1.4126272e-02   3.5427862e-02   7.7097991e-02  -1.3618504e-01   3.1573395e-02  -1.1057508e-01   2.2301434e-01  -1.3210868e-01  -7.3322702e-02  -1.2079223e-01   3.1767500e-01  -5.2621581e-02   1.8102999e-02   2.2499745e-02   2.0189546e-02   1.2092193e-01   1.1778623e-01  -1.6566681e-01  -4.4494165e-01
   2.4095157e-02  -1.3771752e-02   2.6240836e-02  -6.0086833e-02   4.7574447e-02  -3.9321722e-02  -7.4247944e-02  -4.0645727e-02   1.2901724e-02   7.3692782e-02   1.4638511e-01  -1.5332316e-01   1.3981105e-01  -5.0252918e-02  -4.4678372e-01   2.4085602e-01  -2.6678632e-01  -3.6160205e-01   1.2824005e-01  -1.5540389e-01   1.3772496e-01   3.4393066e-01  -4.6451958e-01  -3.1873368e-01  -1.0957104e-01  -9.4514049e-01
  -3.3930443e-03   1.5518497e-04  -2.0184286e-04  -2.0372949e-02   1.5852923e-02  -3.7104645e-02   7.3857681e-02   9.1550361e-02  -2.8959890e-02   2.6526710e-01  -5.2434278e-02   2.4278598e-01   5.2018366e-02   1.0442822e-01  -2.0516504e-01  -5.8777869e-02   7.4234408e-02  -1.1731128e-01   4.0604849e-01   3.8810122e-01   3.1073230e-01  -1.0000248e-01   1.4898633e-01  -3.7069073e-01   2.4303124e-01   2.1943898e-01
  -1.0570122e-02  -3.4540479e-02   6.2419692e-03  -4.2687938e-02   4.0808731e-02  -1.0735737e-01  -2.6986466e-02   6.2004280e-02   7.9138612e-02  -1.0563519e-01   1.9411229e-01   2.9408937e-01   1.2556039e-01   1.9568882e-01  -4.8448081e-01  -4.4984372e-01  -2.2565782e-02  -2.4018880e-01   9.2685664e-02   2.6325789e-02   9.6108132e-01  -8.7189842e-02  -1.2845621e-01   1.3034097e-01  -4.8221644e-01  -2.1063469e-01
   1.3697869e-02   1.5079723e-02   2.1867169e-03   5.3937167e-02  -7.2532986e-02   6.0341158e-02  -7.9617026e-02  -1.6631755e-01   1.2592023e-01  -4.5750011e-01   1.0803225e-01  -3.1489626e-01  -1.0958827e-01  -7.1812666e-02   2.9268723e-01  -9.3397681e-03  -1.1173931e-01   1.5573380e-01  -2.8645089e-01  -6.8100281e-01  -2.5293162e-01   7.2618388e-02  -1.9404664e-01   3.6993007e-01  -5.1390397e-01   1.7177711e-02
  -2.4497511e-03   4.5467180e-03  -1.0285450e-02  -8.4007639e-03   3.0774832e-02   6.9902261e-03  -1.7422869e-02  -1.0452644e-01  -4.4347943e-02   1.3007874e-02   5.4459748e-02   8.2302181e-02  -5.9050779e-02  -1.4234500e-01   7.8499746e-02  -3.4649299e-02  -1.2311101e-01  -1.7890509e-01   2.0068832e-01  -6.6020871e-02  -2.8816450e-02  -1.0754768e-01   3.3913839e-01  -2.1014775e-01  -3.7518279e-01   7.3664430e-02
   1.7267788e-02   4.8311952e-03   2.6677444e-03   1.9388538e-02   2.7405807e-02   3.8692961e-03  -2.7146447e-02  -1.1367326e-01  -2.9385983e-02  -6.1455562e-02   4.1618132e-02   4.3371245e-02   1.4598204e-01   1.2449226e-01  -5.3977447e-02  -5.9176638e-02   2.1229645e-04  -1.2548725e-01  -2.3955879e-01  -3.2908349e-02   2.2105609e-01  -4.4088260e-01  -2.0461346e-01  -1.3471556e-01  -5.1312151e-01   5.7687396e-01
  -3.7633031e-03  -5.6795965e-03  -4.2578476e-03   1.2442635e-02  -1.2695926e-02  -2.3804126e-02   3.0185902e-02  -1.4143371e-02   3.5438068e-02   3.2952590e-02   9.0672914e-02  -1.8415284e-02  -5.2675048e-02   5.7867337e-03  -1.0905409e-01  -5.9855799e-02  -7.0779646e-02  -4.3824793e-02  -5.3705746e-02  -1.6653937e-01  -1.0979225e-01  -3.6794317e-01  -3.6565493e-02   2.0131587e-02  -3.6961270e-01  -1.5382941e-01
   1.7115006e-02   2.5287523e-02   8.5829439e-03   7.0940051e-03   2.7188437e-02   9.5112757e-03  -1.6703492e-02  -1.0967226e-01   2.2730533e-03  -3.6837046e-02  -1.0259512e-01  -1.4392511e-01   3.3033168e-01   8.3684067e-02   4.7744355e-02  -1.1732890e-02   2.4086742e-01  -6.9558331e-02  -3.3549874e-01   1.9155793e-01   6.0264761e-02  -2.8474794e-01   3.9279796e-01  -2.8593239e-01  -1.0192170e+00   1.1451541e+00
  -7.6031449e-03  -7.8791807e-03   4.7207011e-03  -1.0963013e-02  -1.8738133e-02   4.3542997e-03   2.6276959e-02   4.4690056e-02   1.1556425e-02   2.6748173e-03  -4.0907245e-02   8.1221091e-03   1.8616201e-01  -2.2988530e-02   6.9106446e-02   6.2096813e-03   1.5938253e-01   8.0558600e-02  -1.7418627e-01   6.2864366e-02  -1.1262234e-01  -2.3926036e-02  -1.7090162e-01   3.3756126e-02  -2.7971815e-02  -2.3573123e-02
   1.4978669e-02   2.1097233e-02  -6.9460485e-03   3.3136413e-02   8.3071889e-02  -2.0217713e-02  -7.5284969e-02   5.8100128e-03   2.6056967e-02   6.1483915e-02  -1.2369506e-01   2.3909635e-02  -9.1400311e-02   2.0331641e-01  -1.2375389e-01  -1.1577119e-01  -5.6108974e-02   2.3122438e-01  -1.7962693e-02   4.1805151e-02  -2.0560555e-02   1.4164734e-02   1.8767421e-01   1.1803154e-01  -4.5572302e-02  -3.1824466e-01
   2.1971093e-02  -7.6555745e-03   2.3602580e-02  -6.1765056e-02   2.9534855e-02  -1.7782186e-02  -6.9640340e-02  -7.2391432e-02   2.4058918e-02   6.1610489e-02   1.1857545e-01  -1.5974867e-01   9.9293638e-02  -9.9840188e-02  -3.4692965e-01   2.6300674e-01  -1.6551480e-01  -3.6149004e-01   6.6986903e-02  -2.4941925e-01  -8.6891830e-02   3.1277113e-01  -4.3734009e-01  -4.0109116e-01  -9.0898616e-03  -7.6697452e-01
  -2.8187976e-03  -1.0164949e-03  -2.8315109e-03  -1.7044881e-02   3.2755520e-02  -3.8078732e-02   9.3746247e-02   5.6037956e-02  -1.6426138e-02   2.3931806e-01  -2.1857084e-02   2.6165059e-01   2.7790433e-02   4.9754584e-02  -1.6450743e-01  -3.3325844e-02   9.8320574e-03  -2.8459330e-02   2.7108797e-01   2.5681091e-01   1.8963809e-01  -1.1974696e-01   2.7606026e-01  -2.1689484e-01   2.4681853e-01   2.8059759e-01
  -1.0264418e-02  -2.8477330e-02  -1.8402914e-04  -2.3210323e-02   2.6704166e-02  -8.4197338e-02  -1.0055846e-02   4.7878191e-02   6.9218577e-02  -1.2665288e-01   1.2876921e-01   2.6168197e-01   1.0971651e-01   1.3376069e-01  -3.3576752e-01  -3.9147899e-01   3.8305281e-02  -2.0745395e-01   7.2073879e-02   5.8611271e-02   8.2169768e-01  -1.1802698e-01   4.3053992e-02   9.4042126e-02  -4.1355858e-01  -8.3710345e-02
   6.3680033e-03   1.6863438e-02   7.8030073e-04   5.4485575e-02  -8.5936841e-02   6.0004076e-02  -9.4946756e-02  -1.1868618e-01   1.0499700e-01  -4.4235962e-01   6.0081406e-02  -3.7253199e-01  -1.0627848e-01  -3.2281672e-03   3.1217354e-01   4.2961790e-02  -4.4297643e-02   1.9034502e-01  -2.1157422e-01  -4.6161271e-01  -1.9432195e-01   2.7499536e-01  -2.0609117e-01   2.2795671e-01  -5.0412998e-01  -8.0792954e-02
  -1.6484968e-03   4.6995576e-03  -8.8773316e-03  -1.2882094e-02   1.4955389e-02   5.2183841e-03  -1.6031665e-03  -8.9458971e-02  -4.5362034e-02  -5.1964628e-03   6.5845152e-02   5.4087279e-02  -2.4442817e-02  -1.6251990e-01   6.8499593e-02  -3.3818231e-02  -4.4859903e-02  -1.9771888e-01   1.2245023e-01   7.7266841e-03  -6.2225046e-02  -2.0393683e-02   3.5429333e-01  -1.6489030e-01  -2.9401872e-01   1.3162552e-01
   1.7874263e-02   2.9798994e-03   4.0477097e-03   1.9123002e-02   2.9315347e-02   3.2178192e-03  -2.7910431e-02  -1.2811668e-01  -4.9446255e-02  -5.7890921e-02   7.5394292e-02   3.5824774e-02   1.2958256e-01   8.3925981e-02  -4.5662407e-02  -4.3733551e-02  -4.5381023e-02  -9.1187776e-02  -2.0016263e-01  -5.5407557e-02   1.8970710e-01  -3.5669308e-01  -1.9064285e-01  -6.4021708e-02  -4.3524438e-01   5.9182322e-01
  -2.3989932e-03  -2.7253088e-03  -6.6319861e-03   1.3195767e-02  -6.7288215e-03  -2.5212205e-02   2.5286865e-02  -3.6995698e-03   2.9477964e-02   1.3238211e-02   7.1919441e-02  -5.3279197e-02  -2.4332614e-02  -3.3274535e-02  -1.1807173e-01  -7.8217501e-02  -5.3758524e-02  -8.6429672e-03  -9.8368530e-02  -1.4244471e-01  -1.0458006e-01  -2.7891188e-01   5.8846216e-03  -5.2324262e-02  -3.1030295e-01  -8.2286636e-02
   1.4431582e-02   2.3277562e-02   9.9145632e-03   3.8253419e-03   2.8206681e-02   8.5262139e-03  -2.6287619e-02  -1.1370657e-01   2.7488704e-03  -3.5570485e-02  -5.4561412e-02  -1.4200967e-01   2.9829923e-01   9.0757921e-02   4.7173080e-02  -3.1396219e-02   2.0352506e-01  -5.0893752e-02  -3.0350056e-01   1.2638539e-01   2.3657133e-02  -2.4748421e-01   4.1139935e-01  -1.7920840e-01  -9.2350367e-01   1.0569236e+00
  -4.3277649e-03  -5.4689575e-03   1.7648896e-03  -9.6576100e-03  -1.8947548e-02  -1.1210329e-04   1.5376668e-02   6.5727128e-02   1.8234873e-02   9.2937745e-03  -2.4580333e-02  -5.1172735e-02   1.5867236e-01  -3.5696228e-02   1.0124861e-01   3.5371639e-02   2.9482626e-01   1.2045698e-01  -1.6202534e-01   4.2076839e-02  -1.4547106e-01   1.6808257e-01  -4.5838964e-02   6.5900904e-02  -7.5408231e-02   3.3609718e-02
   1.6969780e-02   2.3588775e-02  -7.8713382e-03   3.1340748e-02   7.0957298e-02  -1.7380262e-02  -6.8164224e-02  -5.4868448e-03   1.1943567e-02   4.1929453e-02  -9.5482829e-02   2.1680620e-02  -7.2164326e-02   1.7155630e-01  -1.0425296e-01  -1.4979561e-01   5.9238746e-03   1.3566108e-01   2.3250751e-02   7.1813050e-02  -4.9124974e-02   1.9457028e-02   2.5599523e-01   1.2304806e-01   5.7240241e-02  -1.7452752e-01
   1.8312798e-02  -1.7346613e-03   2.0418887e-02  -5.6971588e-02   1.0706798e-02   2.1492367e-03  -6.1677404e-02  -9.5663960e-02   3.2721389e-02   4.5852781e-02   8.6803575e-02  -1.5532467e-01   5.6203291e-02  -1.4083356e-01  -2.3480478e-01   2.5741049e-01  -5.9518555e-02  -3.5105579e-01   1.6924345e-02  -3.2231856e-01  -2.8942992e-01   2.6060959e-01  -3.8988480e-01  -4.6771567e-01   8.3796810e-02  -5.5719213e-01
  -3.2530815e-03  -3.9206365e-03  -2.0612408e-03  -1.5807243e-02   3.5965899e-02  -3.5346938e-02   1.0017763e-01   1.8627479e-02  -2.7924043e-03   1.9192738e-01   1.2352108e-02   2.7022544e-01   3.5199408e-04  -2.0934020e-02  -1.2645686e-01  -7.4449619e-02  -2.2308827e-02   8.2807967e-03   1.3185395e-01   1.2097701e-01   2.0327361e-02  -1.7496219e-01   4.0762142e-01  -9.3137971e-02   2.5710957e-01   3.0993454e-01
  -9.7789939e-03  -2.0671440e-02  -7.5700309e-03  -5.8350223e-03   9.1391917e-03  -5.4935868e-02   6.6496115e-03   2.8011262e-02   5.2671244e-02  -1.2793097e-01   6.2053953e-02   2.1824509e-01   8.2511611e-02   7.6945065e-02  -1.6867907e-01  -3.2566146e-01   9.7937975e-02  -1.6712534e-01   5.4463641e-02   8.8732734e-02   6.3602394e-01  -1.5040664e-01   2.0173221e-01   5.0960701e-02  -3.1920793e-01   4.2198788e-02
  -5.7523126e-05   1.6486332e-02   3.4751424e-03   4.8384500e-02  -9.4131518e-02   5.2060748e-02  -1.0238270e-01  -7.1234728e-02   8.2248813e-02  -4.0259977e-01   2.3079009e-02  -3.9142413e-01  -9.1539804e-02   4.4833313e-02   2.9006539e-01   3.9440905e-02   3.3835597e-02   1.6717296e-01  -1.2205222e-01  -2.2345426e-01  -1.5191050e-01   4.0225813e-01  -1.8914425e-01   5.2395238e-02  -4.3363849e-01  -1.6263463e-01
  -1.2114066e-03   4.1104509e-03  -6.3389523e-03  -1.6399105e-02   1.2715994e-03   2.5330912e-03   1.2541916e-02  -6.7394002e-02  -4.1314460e-02  -1.6634888e-02   7.0610007e-02   2.0017048e-02   5.4161702e-03  -1.6538334e-01   4.7942349e-02  -2.7163118e-02   2.9321357e-02  -1.9563748e-01   4.3020303e-02   6.9190369e-02  -8.1922545e-02   7.4193556e-02   3.3694208e-01  -1.0746339e-01  -2.0587985e-01   1.5096097e-01
   1.7813638e-02   1.0325761e-03   4.3250908e-03   1.8898556e-02   2.9696767e-02   1.2317564e-03  -2.4104978e-02  -1.2795769e-01  -6.3994529e-02  -4.7704515e-02   1.0038001e-01   1.6080531e-02   1.0533714e-01   2.9136118e-02  -4.8990826e-02  -3.1214450e-02  -8.6963667e-02  -5.1709859e-02  -1.5474397e-01  -6.3977697e-02   1.4999979e-01  -2.5018293e-01  -1.6117265e-01  -2.0855170e-02  -3.4244750e-01   5.8839458e-01
  -5.8369777e-04   3.1033419e-04  -8.7345876e-03   1.4563512e-02   1.7406855e-04  -2.6335049e-02   1.9242519e-02   7.2760463e-03   1.8679760e-02  -5.5533393e-03   6.1158135e-02  -8.8460786e-02   2.9321579e-03  -7.3407022e-02  -1.2787023e-01  -8.7633075e-02  -3.8266278e-02   2.2304285e-02  -1.3779714e-01  -1.1799182e-01  -9.2673730e-02  -1.7117696e-01   3.6074212e-02  -1.0828161e-01  -2.2029352e-01  -2.5878811e-03
   1.1651790e-02   2.1174955e-02   1.1312342e-02   1.3400169e-03   3.1012353e-02   7.4254160e-03  -3.6926213e-02  -1.1639634e-01  -2.2029127e-03  -3.5200094e-02  -6.8444689e-03  -1.3306386e-01   2.6777959e-01   1.0231482e-01   3.8453680e-02  -5.4108899e-02   1.6636513e-01  -2.8084509e-02  -2.6703615e-01   5.6231246e-02   6.4886337e-03  -2.0995606e-01   4.1132340e-01  -6.6608737e-02  -7.8955552e-01   9.4693360e-01
  -2.6341242e-03  -3.9672465e-03  -9.0218273e-04  -9.7145650e-03  -1.9735100e-02  -2.6875076e-03   6.5010600e-03   7.3750084e-02   2.0779220e-02   1.7066374e-02  -9.9293347e-03  -8.9168013e-02   1.3481887e-01  -5.2909586e-02   1.1696726e-01   5.1276815e-02   3.7067713e-01   1.3074731e-01  -1.3560541e-01   2.4295893e-02  -1.4165023e-01   2.8314604e-01   3.7655729e-02   7.6055632e-02  -1.1425639e-01   7.2576051e-02
   1.8836054e-02   2.6006781e-02  -8.5475521e-03   2.8803651e-02   5.7853289e-02  -1.4213939e-02  -6.0528945e-02  -1.6288174e-02  -3.3720539e-03   2.2089342e-02  -5.9061162e-02   2.3871973e-02  -5.5671742e-02   1.3680199e-01  -7.8632844e-02  -1.7245655e-01   5.6592135e-02   4.7160355e-02   6.6190662e-02   1.0348275e-01  -6.2565047e-02   3.2606009e-02   3.1049326e-01   1.3581276e-01   1.4188432e-01  -4.1214457e-02
   1.3870031e-02   3.4856502e-03   1.7133025e-02  -4.8160119e-02  -6.3865931e-03   1.8732915e-02  -5.2673121e-02  -1.0883155e-01   3.8920588e-02   3.1179651e-02   5.4954067e-02  -1.4245733e-01   1.5978501e-02  -1.6756011e-01  -1.2710040e-01   2.3396861e-01   3.7152512e-02  -3.3366785e-01  -1.6467747e-02  -3.7212796e-01  -4.4496898e-01   1.9986645e-01  -3.4040214e-01  -5.1824947e-01   1.5242256e-01  -3.4335987e-01
  -3.7682587e-03  -7.7883525e-03   7.2169665e-04  -1.5913644e-02   2.9113127e-02  -3.0796220e-02   9.4471452e-02  -1.1808914e-02   9.8120323e-03   1.3822004e-01   4.3146726e-02   2.6855845e-01  -1.9172952e-02  -8.9690806e-02  -9.9879483e-02  -1.5414616e-01  -3.2145545e-02  -2.1851162e-03   1.7805931e-02   7.6726748e-03  -1.3471169e-01  -2.4366050e-01   4.9680617e-01  -5.5003534e-03   2.5281792e-01   2.9533622e-01
  -9.0867347e-03  -1.2267830e-02  -1.4547939e-02   8.2616956e-03  -8.7939348e-03  -2.4740228e-02   2.0439958e-02   6.0974262e-03   3.2916531e-02  -1.1390299e-01   2.6644341e-03   1.7139710e-01   5.0375572e-02   3.2693179e-02  -1.1773751e-02  -2.6215566e-01   1.4634317e-01  -1.2355447e-01   4.4350975e-02   1.1573908e-01   4.4232121e-01  -1.8041324e-01   3.3689207e-01   1.3307645e-02  -2.1602279e-01   1.4702263e-01
  -4.9872693e-03   1.4329986e-02   8.9987245e-03   3.7602191e-02  -9.8075164e-02   3.8970251e-02  -1.0480703e-01  -2.7007325e-02   5.8828314e-02  -3.4532870e-01  -1.7755602e-03  -3.7590203e-01  -6.7228660e-02   7.8061298e-02   2.3083007e-01  -7.8830752e-03   1.0964144e-01   9.3144531e-02  -2.3197493e-02   7.9327687e-03  -1.0331151e-01   4.4940474e-01  -1.7076758e-01  -1.3245806e-01  -3.2992238e-01  -2.2821445e-01
  -1.2182639e-03   2.9549934e-03  -3.0993507e-03  -1.8508576e-02  -8.4924200e-03  -6.7910401e-04   2.3640007e-02  -4.2958467e-02  -3.3413739e-02  -2.0466113e-02   6.8831228e-02  -1.4669749e-02   2.7037201e-02  -1.5262366e-01   1.8392533e-02  -1.7478818e-02   8.7574731e-02  -1.7820098e-01  -2.6060292e-02   1.1148548e-01  -8.4742905e-02   1.5838168e-01   2.9418403e-01  -4.8525081e-02  -1.2166778e-01   1.3438743e-01
   1.7321173e-02  -6.4894736e-04   3.6722717e-03   1.8634605e-02   2.8628582e-02  -1.5399208e-03  -1.7093579e-02  -1.1649300e-01  -7.2234162e-02  -3.3519311e-02   1.1498044e-01  -1.3298140e-02   7.8616229e-02  -3.2020996e-02  -5.9266222e-02  -2.1662746e-02  -1.1950806e-01  -1.1798027e-02  -1.1111485e-01  -5.9662213e-02   1.0553019e-01  -1.3789251e-01  -1.1979299e-01  -5.2980336e-03  -2.5381663e-01   5.7603941e-01
   1.4042982e-03   2.9726913e-03  -1.0375832e-02   1.6378940e-02   7.2318832e-03  -2.7031854e-02   1.2918325e-02   1.7938492e-02   5.4410842e-03  -2.0286531e-02   5.7598047e-02  -1.2117265e-01   2.6334623e-02  -1.1024982e-01  -1.3627159e-01  -8.7203878e-02  -2.6293223e-02   4.5809654e-02  -1.6578701e-01  -9.5199451e-02  -7.8546676e-02  -6.0477379e-02   4.9012652e-02  -1.4926072e-01  -1.1784470e-01   7.5850631e-02
   8.8443937e-03   1.9208534e-02   1.2489635e-02  -3.7039000e-04   3.5201710e-02   6.2036516e-03  -4.6916853e-02  -1.1469739e-01  -9.7883863e-03  -3.3723052e-02   3.4061768e-02  -1.2037004e-01   2.4091969e-01   1.1569542e-01   2.1533949e-02  -7.9473924e-02   1.3474812e-01  -3.6668998e-03  -2.2776244e-01  -1.0085001e-02   3.6322593e-03  -1.7333783e-01   4.0024188e-01   3.2793297e-02  -6.3633329e-01   8.2096789e-01
  -2.5325556e-03  -3.5696316e-03  -3.0269586e-03  -1.1214816e-02  -2.1143414e-02  -3.7181730e-03   8.3140484e-04   7.0196889e-02   1.9574093e-02   2.4888241e-02   2.5521222e-03  -1.0487657e-01   1.1746378e-01  -7.4184664e-02   1.1719172e-01   5.3204914e-02   3.8821922e-01   1.1191305e-01  -1.0086883e-01   1.4720183e-02  -1.0948336e-01   3.1799158e-01   8.0950994e-02   6.4389764e-02  -1.4270848e-01   8.9178743e-02
   2.0437369e-02   2.8188247e-02  -8.8641992e-03   2.6178546e-02   4.5385275e-02  -1.1148971e-02  -5.3305772e-02  -2.4031107e-02  -1.7043101e-02   4.8992390e-03  -2.1183943e-02   2.9146328e-02  -4.3644541e-02   1.0568486e-01  -5.0961662e-02  -1.8238350e-01   9.0255191e-02  -2.2740414e-02   1.0742543e-01   1.3255894e-01  -6.1530696e-02   4.9655306e-02   3.4181622e-01   1.5448946e-01   2.0717041e-01   6.2552038e-02
   9.2186917e-03   7.6656660e-03   1.3960215e-02  -3.7274679e-02  -1.9561443e-02   3.0972438e-02  -4.3812046e-02  -1.1172637e-01   4.2747792e-02   2.0475181e-02   2.5730339e-02  -1.2372646e-01  -1.8028199e-02  -1.7747863e-01  -3.4315788e-02   2.0312687e-01   1.1398471e-01  -3.0907036e-01  -3.2911373e-02  -3.9964769e-01  -5.3992294e-01   1.4122369e-01  -2.9943748e-01  -5.5106317e-01   1.8689972e-01  -1.4400094e-01
  -3.7383594e-03  -1.1627316e-02   3.5223551e-03  -1.6244564e-02   1.7979700e-02  -2.5831515e-02   7.9958395e-02  -2.9621776e-02   1.9441512e-02   9.0328274e-02   6.4266424e-02   2.5489730e-01  -2.4595223e-02  -1.4128475e-01  -8.5281465e-02  -2.3286309e-01  -3.3848941e-02  -3.8486460e-02  -5.6093878e-02  -6.7719236e-02  -2.2788139e-01  -2.9695512e-01   5.1277357e-01   5.2991480e-02   2.1668651e-01   2.3579507e-01
  -8.1745004e-03  -4.2058654e-03  -2.0176973e-02   1.8535366e-02  -2.4442963e-02   2.5075454e-03   2.9778822e-02  -1.4903639e-02   1.2846502e-02  -8.9490040e-02  -4.3467765e-02   1.2683014e-01   1.8247498e-02   5.2074185e-03   1.1490729e-01  -2.0636244e-01   1.7644484e-01  -7.9203443e-02   4.2844489e-02   1.3760567e-01   2.6953624e-01  -2.0357964e-01   4.4271454e-01  -8.7876775e-03  -1.1713878e-01   2.1764250e-01
  -8.0321706e-03   1.1145146e-02   1.5530934e-02   2.4557862e-02  -9.7116567e-02   2.3218210e-02  -1.0360330e-01   1.1976644e-02   3.5295486e-02  -2.7640077e-01  -1.6066468e-02  -3.3394729e-01  -3.6428102e-02   1.0300419e-01   1.4558665e-01  -7.3857308e-02   1.6942052e-01  -1.1531866e-02   7.7694817e-02   2.1188996e-01  -2.9431506e-02   4.2854701e-01  -1.7111272e-01  -3.0143017e-01  -2.1950988e-01  -2.7676484e-01
  -1.6894996e-03   1.4478618e-03   3.9505708e-04  -1.9033609e-02  -1.3544162e-02  -3.9394676e-03   3.0989955e-02  -2.0297668e-02  -2.3225935e-02  -1.7327591e-02   6.1324235e-02  -4.5466815e-02   3.9320402e-02  -1.2775558e-01  -1.7157553e-02  -7.6887543e-03   1.2293243e-01  -1.5235471e-01  -7.7576332e-02   1.3185970e-01  -7.1031257e-02   2.1773329e-01   2.3477225e-01   3.3062307e-03  -4.9188980e-02   8.9945741e-02
   1.6590429e-02  -1.7901327e-03   2.3086171e-03   1.8287661e-02   2.6243687e-02  -4.5609396e-03  -8.3956246e-03  -9.7448741e-02  -7.4391516e-02  -1.8046680e-02   1.1981311e-01  -4.9071724e-02   5.2986821e-02  -9.2740304e-02  -7.1715278e-02  -1.4192927e-02  -1.4020011e-01   2.4970199e-02  -7.5328628e-02  -4.5589683e-02   5.9583505e-02  -3.2942319e-02  -7.1669554e-02  -1.2055092e-02  -1.8149202e-01   5.6148944e-01
   3.3185971e-03   4.9417400e-03  -1.1462299e-02   1.8473211e-02   1.3772487e-02  -2.7326915e-02   7.1383964e-03   2.7819384e-02  -7.9470192e-03  -2.8754191e-02   5.9651755e-02  -1.4971328e-01   4.3830693e-02  -1.4098991e-01  -1.4252737e-01  -7.8035323e-02  -1.8793296e-02   6.0205427e-02  -1.7846306e-01  -7.4917587e-02  -6.6243337e-02   3.9945330e-02   4.3353506e-02  -1.7875367e-01  -1.9307204e-02   1.4650731e-01
   6.1071032e-03   1.7592112e-02   1.3275161e-02  -1.3991473e-03   4.0329259e-02   4.9268868e-03  -5.4946696e-02  -1.0707383e-01  -1.7984172e-02  -3.0241240e-02   6.3954858e-02  -1.0611137e-01   2.1948968e-01   1.2843965e-01  -2.1683022e-03  -1.0622022e-01   1.1286087e-01   1.9699400e-02  -1.8863130e-01  -6.6515477e-02   9.5822737e-03  -1.3895601e-01   3.8474768e-01   1.0702876e-01  -4.7990568e-01   6.8556803e-01
  -3.7187021e-03  -4.2419053e-03  -4.5060029e-03  -1.3994327e-02  -2.3069328e-02  -3.8173354e-03  -1.0869966e-03   5.8607856e-02   1.5545886e-02   3.1655096e-02   1.3047950e-02  -1.0106926e-01   1.0802632e-01  -9.8046367e-02   1.0518321e-01   4.3511416e-02   3.5860403e-01   6.9030357e-02  -6.5149008e-02   1.6273180e-02  -6.0818500e-02   2.8580729e-01   9.1868703e-02   3.6558494e-02  -1.6069923e-01   8.3233874e-02
   2.1631307e-02   3.0025341e-02  -8.7753452e-03   2.3972803e-02   3.4808009e-02  -8.4720739e-03  -4.7134216e-02  -2.7189163e-02  -2.7080555e-02  -7.6415108e-03   1.2709595e-02   3.6059658e-02  -3.6640030e-02   8.2292832e-02  -2.4146631e-02  -1.7970475e-01   1.0457918e-01  -6.7581101e-02   1.4458195e-01   1.5544239e-01  -4.7977988e-02   6.6467846e-02   3.4634401e-01   1.7391484e-01   2.5185033e-01   1.2620961e-01
   4.7531481e-03   1.0605719e-02   1.1038729e-02  -2.5796782e-02  -2.7409802e-02   3.8588137e-02  -3.5456718e-02  -1.0554373e-01   4.4423192e-02   1.4688605e-02   9.6118287e-04  -1.0161652e-01  -4.4529061e-02  -1.7122954e-01   3.8441597e-02   1.7323696e-01   1.6478885e-01  -2.7560528e-01  -3.6126814e-02  -4.0774820e-01  -5.7254228e-01   9.2185554e-02  -2.6968439e-01  -5.6458763e-01   1.8462716e-01   3.0329116e-02
  -2.9589456e-03  -1.4448186e-02   4.5962206e-03  -1.5629830e-02   8.4200318e-03  -2.1123792e-02   6.1365645e-02  -3.3374854e-02   2.4946847e-02   5.5288351e-02   7.1812174e-02   2.2736282e-01  -1.5756936e-02  -1.6719546e-01  -7.6512125e-02  -2.7357350e-01  -4.0291081e-02  -7.2151030e-02  -8.9429353e-02  -1.0270067e-01  -2.3938594e-01  -3.0856817e-01   4.5004377e-01   9.6339684e-02   1.4257606e-01   1.4163136e-01
  -7.0506856e-03   2.8057323e-03  -2.3907642e-02   2.4998798e-02  -3.5858839e-02   2.4262627e-02   3.4175267e-02  -3.2818464e-02  -5.2285066e-03  -5.9734788e-02  -7.3215207e-02   8.8241010e-02  -1.0466796e-02  -4.6342569e-03   1.9986282e-01  -1.6017759e-01   1.8445351e-01  -3.5265338e-02   4.8416935e-02   1.5200574e-01   1.3616872e-01  -2.1543698e-01   5.1789290e-01  -8.5691029e-03  -3.1322610e-02   2.4773620e-01
  -9.1031904e-03   7.8429742e-03   2.1324564e-02   1.1749305e-02  -9.0056607e-02   7.2908755e-03  -9.8738546e-02   4.3962853e-02   1.2110067e-02  -2.0155338e-01  -2.2859278e-02  -2.7542201e-01  -4.0485835e-03   1.2403803e-01   5.0079957e-02  -1.2981006e-01   2.0237217e-01  -1.1967515e-01   1.7054075e-01   3.7135900e-01   7.5519717e-02   3.6175252e-01  -1.9587797e-01  -4.3205693e-01  -1.2191541e-01  -3.0533099e-01
  -2.5645054e-03  -1.6890389e-04   3.7220386e-03  -1.8017959e-02  -1.3945367e-02  -6.7660656e-03   3.4431293e-02  -2.5602205e-03  -1.2396715e-02  -8.9714690e-03   4.9486071e-02  -6.8990291e-02   4.2941633e-02  -9.5138803e-02  -5.4714776e-02  -2.9140061e-04   1.3347836e-01  -1.2490948e-01  -1.0871101e-01   1.3102341e-01  -4.4202817e-02   2.4335412e-01   1.6800479e-01   4.2621329e-02   6.9979402e-03   2.8756911e-02
   1.5759739e-02  -2.2225274e-03   4.7618971e-04   1.7855629e-02   2.2738155e-02  -7.3780302e-03   5.0996215e-04  -7.4430660e-02  -7.1360176e-02  -3.6680666e-03   1.1691897e-01  -8.7779283e-02   3.0346365e-02  -1.4752400e-01  -8.2268949e-02  -7.5537011e-03  -1.4822458e-01   5.6257400e-02  -5.1227435e-02  -2.6003803e-02   1.5052234e-02   5.5245629e-02  -2.2726780e-02  -3.2970448e-02  -1.3148610e-01   5.4849530e-01
   4.9611973e-03   6.0479479e-03  -1.1971319e-02   2.0681877e-02   1.9263170e-02  -2.7357281e-02   2.5740221e-03   3.6578252e-02  -1.9588523e-02  -2.9931586e-02   6.5529583e-02  -1.7319397e-01   5.4098514e-02  -1.6418686e-01  -1.4673345e-01  -6.2449707e-02  -1.5918610e-02   6.5234044e-02  -1.7446297e-01  -5.7309906e-02  -5.8871500e-02   1.1991547e-01   2.0970738e-02  -2.0040205e-01   6.1919959e-02   2.0538827e-01
   3.5426740e-03   1.6516502e-02   1.3588067e-02  -1.8879048e-03   4.5910349e-02   3.7277537e-03  -6.0128709e-02  -9.3327968e-02  -2.5521005e-02  -2.4780634e-02   8.0875853e-02  -9.1479406e-02   2.0447436e-01   1.3837423e-01  -3.0034152e-02  -1.3228200e-01   1.0322524e-01   3.9632035e-02  -1.5336470e-01  -1.0984420e-01   1.8868119e-02  -1.0804452e-01   3.6977170e-01   1.5126327e-01  -3.3257013e-01   5.4706115e-01
  -5.6990091e-03  -5.7589927e-03  -5.3613577e-03  -1.7696958e-02  -2.5223737e-02  -3.6555646e-03   6.9764870e-04   4.3421557e-02   9.8852210e-03   3.6384266e-02   2.2161516e-02  -8.2753518e-02   1.0653180e-01  -1.2219024e-01   8.5496817e-02   2.6657060e-02   2.9827981e-01   1.0143526e-02  -3.5791407e-02   2.9100855e-02  -8.2750533e-03   2.1015031e-01   8.1336578e-02   1.8146092e-03  -1.6926921e-01   5.7577917e-02
   2.2291380e-02   3.1451556e-02  -8.2805870e-03   2.2518254e-02   2.6925642e-02  -6.3454963e-03  -4.2414344e-02  -2.5262688e-02  -3.2419697e-02  -1.4562993e-02   3.8854837e-02   4.3270998e-02  -3.4142665e-02   6.8335610e-02   1.0330420e-04  -1.6581271e-01   1.0035124e-01  -8.5833223e-02   1.7599672e-01   1.6937028e-01  -2.5008487e-02   7.9126398e-02   3.2535996e-01   1.8736469e-01   2.7494261e-01   1.4715059e-01
   7.1019025e-04   1.2210570e-02   8.5178032e-03  -1.4826149e-02  -2.9535193e-02   4.1881526e-02  -2.7527670e-02  -9.2460573e-02   4.4301627e-02   1.3147061e-02  -1.8175469e-02  -7.8272455e-02  -6.3844821e-02  -1.5203963e-01   9.0101947e-02   1.4890011e-01   1.8783555e-01  -2.3223757e-01  -3.2060131e-02  -4.0023189e-01  -5.5092704e-01   5.6333685e-02  -2.4784648e-01  -5.5835903e-01   1.4945722e-01   1.7514143e-01
  -1.6291130e-03  -1.5507733e-02   3.0473813e-03  -1.3205048e-02   4.5989368e-03  -1.6642855e-02   4.3659842e-02  -2.5574900e-02   2.6226060e-02   3.4504618e-02   6.5144170e-02   1.8552325e-01   2.3170120e-03  -1.6699951e-01  -6.4287564e-02  -2.5330028e-01  -5.9080344e-02  -7.7846070e-02  -9.2746813e-02  -1.0550029e-01  -1.7964386e-01  -2.6282802e-01   3.2827277e-01   1.3917188e-01   3.7935862e-02   3.1272304e-02
  -5.7446724e-03   8.2858271e-03  -2.5528889e-02   2.8099240e-02  -4.1935445e-02   3.9232036e-02   3.3981541e-02  -4.6193341e-02  -1.9593131e-02  -2.9389587e-02  -8.6070009e-02   5.7462716e-02  -3.3726323e-02   1.0502816e-03   2.3933030e-01  -1.2299573e-01   1.6983931e-01   7.6184204e-03   5.7928836e-02   1.5706982e-01   5.0577749e-02  -2.1210162e-01   5.6448022e-01   1.6537424e-02   3.6931671e-02   2.3697526e-01
  -8.4207603e-03   5.2613550e-03   2.5193721e-02   1.3489267e-03  -7.6181236e-02  -6.4665861e-03  -8.9332935e-02   6.7204072e-02  -1.0048540e-02  -1.2693851e-01  -2.5492192e-02  -2.1021710e-01   2.3591969e-02   1.4183136e-01  -3.8543983e-02  -1.5256606e-01   2.0319524e-01  -2.0465065e-01   2.4362337e-01   4.7298686e-01   2.0032360e-01   2.7357609e-01  -2.3511021e-01  -5.0810032e-01  -4.6564822e-02  -3.0919489e-01
  -3.6985020e-03  -1.6427794e-03   6.5194457e-03  -1.5669397e-02  -1.0404979e-02  -8.7388338e-03   3.4212749e-02   8.3818582e-03  -2.4194868e-03   2.1695301e-03   3.5077997e-02  -8.3142563e-02   3.9659373e-02  -5.9138668e-02  -8.9849840e-02   3.0188201e-03   1.2166712e-01  -1.0137129e-01  -1.2049668e-01   1.1227678e-01  -9.9225118e-03   2.3282712e-01   1.0261058e-01   6.7679048e-02   4.5406860e-02  -3.7129358e-02
   1.4909226e-02  -1.8952230e-03  -1.5770691e-03   1.7370697e-02   1.8376374e-02  -9.6741288e-03   8.3413383e-03  -5.0527047e-02  -6.4367554e-02   7.8526859e-03   1.0903953e-01  -1.2611371e-01   1.1281679e-02  -1.9229368e-01  -8.8148166e-02  -6.6662163e-04  -1.4435921e-01   8.0878951e-02  -4.0286890e-02  -5.3815696e-03  -2.5557704e-02   1.2088622e-01   2.1193587e-02  -5.9406279e-02  -1.0490607e-01   5.3795021e-01
   6.1905368e-03   6.2723610e-03  -1.1930349e-02   2.2848951e-02   2.3322576e-02  -2.7312549e-02  -3.3083913e-04   4.3830004e-02  -2.8183880e-02  -2.4055000e-02   7.3667769e-02  -1.9126730e-01   5.6475888e-02  -1.7951799e-01  -1.4927784e-01  -4.3207959e-02  -1.7292049e-02   6.1862942e-02  -1.5486591e-01  -4.2299659e-02  -5.8245688e-02   1.7264828e-01  -1.3786438e-02  -2.1661113e-01   1.1620164e-01   2.5044358e-01
   1.2365840e-03   1.6139530e-02   1.3413466e-02  -1.9932823e-03   5.1431470e-02   2.7818446e-03  -6.1997705e-02  -7.4308905e-02  -3.1766250e-02  -1.8025550e-02   8.4857925e-02  -7.6901884e-02   1.9582389e-01   1.4367266e-01  -5.8679916e-02  -1.5504636e-01   1.0646551e-01   5.4311651e-02  -1.2581514e-01  -1.3940097e-01   2.6444296e-02  -8.1565408e-02   3.5827898e-01   1.6694948e-01  -2.0253286e-01   4.1075950e-01
  -7.9226878e-03  -7.7668717e-03  -5.6976614e-03  -2.1846143e-02  -2.7158090e-02  -3.7916847e-03   5.6425674e-03   2.8875059e-02   3.8117590e-03   3.8326251e-02   3.0616637e-02  -5.5808639e-02   1.1185390e-01  -1.4386644e-01   6.2942563e-02   7.9630829e-03   2.2487547e-01  -5.5425788e-02  -1.8982326e-02   5.0687034e-02   3.7062441e-02   1.1834331e-01   6.0428307e-02  -2.9384592e-02  -1.6981580e-01   1.7127426e-02
   2.2325388e-02   3.2429650e-02  -7.4085009e-03   2.1964824e-02   2.2071623e-02  -4.8298908e-03  -3.9355524e-02  -1.8651739e-02  -3.2888602e-02  -1.5889211e-02   5.5297119e-02   4.9718470e-02  -3.4803142e-02   6.3530999e-02   2.1167917e-02  -1.4300007e-01   8.0923785e-02  -8.0216096e-02   2.0042147e-01   1.7252183e-01   3.4429946e-03   8.4363936e-02   2.8384429e-01   1.8833598e-01   2.7609543e-01   1.2935643e-01
  -2.7863502e-03   1.2458885e-02   6.5740176e-03  -5.1663248e-03  -2.6551551e-02   4.1534098e-02  -1.9855220e-02  -7.5091710e-02   4.2821281e-02   1.4139130e-02  -3.1041974e-02  -5.5348835e-02  -7.7195223e-02  -1.2466783e-01   1.2210759e-01   1.3058959e-01   1.8536465e-01  -1.7989425e-01  -2.6981119e-02  -3.8059570e-01  -4.8932677e-01   3.3413643e-02  -2.2773186e-01  -5.3356732e-01   8.9838003e-02   2.8979835e-01
  -2.1752386e-04  -1.4496847e-02  -9.6383712e-04  -8.7013345e-03   7.9488856e-03  -1.1925752e-02   3.0738964e-02  -1.1372446e-02   2.4095201e-02   2.4739426e-02   4.6910495e-02   1.3144560e-01   2.1824234e-02  -1.4717497e-01  -4.0292222e-02  -1.6938472e-01  -9.0753029e-02  -4.1697856e-02  -8.1767147e-02  -9.0413058e-02  -8.1798207e-02  -1.5934160e-01   1.8362443e-01   1.9135994e-01  -7.8493639e-02  -7.4209607e-02
  -4.3007975e-03   1.1959373e-02  -2.5108781e-02   2.8569707e-02  -4.2417961e-02   4.7186092e-02   3.0139758e-02  -5.4161961e-02  -2.9112740e-02  -2.5123333e-03  -8.3773501e-02   3.4754404e-02  -5.0542499e-02   1.7803931e-02   2.3590920e-01  -9.2665031e-02   1.3495015e-01   4.8741505e-02   6.7721097e-02   1.5197735e-01   1.2459566e-02  -1.9081070e-01   5.8629391e-01   6.4686070e-02   8.6718472e-02   1.8978104e-01
  -6.4425901e-03   3.9620207e-03   2.6754980e-02  -5.1510424e-03  -5.5988745e-02  -1.6087550e-02  -7.4490165e-02   8.0177286e-02  -3.0190175e-02  -5.8940362e-02  -2.6696360e-02  -1.4667527e-01   4.0082313e-02   1.5348444e-01  -1.0533013e-01  -1.3073842e-01   1.7324748e-01  -2.4717902e-01   2.8608671e-01   5.0842498e-01   3.1976132e-01   1.8482436e-01  -2.6771610e-01  -5.2222082e-01   7.0241630e-03  -2.8384323e-01
  -4.8781142e-03  -2.7322979e-03   8.5146957e-03  -1.2301169e-02  -4.0409418e-03  -9.5423147e-03   3.0874106e-02   1.1985136e-02   5.5398971e-03   1.3433810e-02   1.9976680e-02  -8.7098248e-02   3.1662407e-02  -2.3509900e-02  -1.1831368e-01   1.5239078e-03   9.3077968e-02  -8.5200023e-02  -1.1681733e-01   8.0571632e-02   2.4967563e-02   1.8997321e-01   4.5793329e-02   8.0130169e-02   6.7181359e-02  -9.6606895e-02
   1.4067779e-02  -8.7693842e-04  -3.6096842e-03   1.6885719e-02   1.3492242e-02  -1.1296772e-02   1.4118524e-02  -2.8080190e-02  -5.4705931e-02   1.5513771e-02   9.9016938e-02  -1.6119369e-01  -4.4449663e-03  -2.2435995e-01  -8.8191902e-02   6.9560470e-03  -1.3047880e-01   9.8602902e-02  -4.1743157e-02   1.2286713e-02  -6.0058232e-02   1.6148829e-01   5.5089017e-02  -8.4166640e-02  -9.9377182e-02   5.2836736e-01
   6.9221282e-03   5.7308283e-03  -1.1401180e-02   2.4827272e-02   2.5715544e-02  -2.7378347e-02  -1.3931781e-03   4.9070870e-02  -3.3126399e-02  -1.2523222e-02   8.2960868e-02  -2.0389370e-01   5.0887112e-02  -1.8749260e-01  -1.5041304e-01  -2.2868316e-02  -2.2241888e-02   5.2030864e-02  -1.2288197e-01  -2.9909373e-02  -6.4723730e-02   1.9483472e-01  -5.5048516e-02  -2.2779082e-01   1.3819659e-01   2.8090499e-01
  -7.6147439e-04   1.6574116e-02   1.2781282e-02  -1.8607565e-03   5.6370402e-02   2.2669072e-03  -6.0472889e-02  -5.1556191e-02  -3.6535123e-02  -1.1012934e-02   7.7536207e-02  -6.2333451e-02   1.9241646e-01   1.4290673e-01  -8.4494385e-02  -1.7172518e-01   1.2136436e-01   6.2653410e-02  -1.0931538e-01  -1.5652446e-01   2.8094032e-02  -6.0069115e-02   3.5122022e-01   1.6025458e-01  -9.4081018e-02   2.8034494e-01
  -9.8996820e-03  -9.8562336e-03  -5.6495696e-03  -2.5920510e-02  -2.8342308e-02  -4.5629640e-03   1.2840629e-02   1.8158854e-02  -1.5999431e-03   3.7073031e-02   3.8959817e-02  -2.5947194e-02   1.2207633e-01  -1.6035102e-01   4.1672378e-02  -7.6617647e-03   1.5398875e-01  -1.1860682e-01  -1.8851334e-02   7.6483653e-02   6.7311551e-02   3.5383006e-02   3.8122613e-02  -4.7815659e-02  -1.6345837e-01  -3.1944681e-02
   2.1691694e-02   3.2943001e-02  -6.2047818e-03   2.2295352e-02   2.0144704e-02  -3.9066499e-03  -3.8017509e-02  -8.4396200e-03  -2.9086817e-02  -1.2486173e-02   6.1803542e-02   5.4738277e-02  -3.6779456e-02   6.6139100e-02   3.9287405e-02  -1.1402923e-01   5.1388128e-02  -5.6586415e-02   2.1683098e-01   1.6406741e-01   3.3020455e-02   7.9954555e-02   2.2905476e-01   1.7208704e-01   2.5593883e-01   8.1542586e-02
  -5.6746625e-03   1.1388060e-02   5.3714092e-03   2.6083791e-03  -1.9865268e-02   3.8392305e-02  -1.2420132e-02  -5.5927574e-02   4.0418190e-02   1.5613126e-02  -3.7529970e-02  -3.3986057e-02  -8.5969002e-02  -9.4168011e-02   1.3705866e-01   1.1549382e-01   1.6260396e-01  -1.2184966e-01  -2.5874383e-02  -3.5104936e-01  -4.0385697e-01   2.0193706e-02  -2.0353303e-01  -4.9300974e-01   1.6437722e-02   3.7550149e-01
   7.3640137e-04  -1.1617713e-02  -6.4059076e-03  -2.5803195e-03   1.7033369e-02  -6.4655923e-03   2.4396526e-02   3.2916758e-03   1.9869414e-02   2.0197182e-02   2.2243399e-02   6.9944920e-02   3.5293606e-02  -1.1803276e-01  -5.8192264e-04  -3.9353197e-02  -1.2921119e-01   3.4433523e-02  -7.1224728e-02  -7.2147904e-02   1.2284393e-02  -1.3440235e-02   5.5273613e-02   2.5479958e-01  -1.8246147e-01  -1.5700900e-01
  -2.7703597e-03   1.3727575e-02  -2.2934225e-02   2.7277807e-02  -3.7794116e-02   4.8709842e-02   2.3919477e-02  -5.6303587e-02  -3.3203088e-02   1.7870129e-02  -6.9803822e-02   1.9195126e-02  -6.0617679e-02   3.9699460e-02   1.9688268e-01  -6.6275168e-02   8.4358894e-02   8.6959782e-02   7.4584770e-02   1.3725682e-01   1.5061508e-02  -1.5034489e-01   5.8731365e-01   1.2996861e-01   1.1967604e-01   1.1388945e-01
  -3.7376654e-03   4.1065144e-03   2.6387768e-02  -7.1679550e-03  -3.1438085e-02  -2.0255764e-02  -5.4102276e-02   8.2091997e-02  -4.7135419e-02  -3.4097521e-03  -2.8159242e-02  -9.0569623e-02   4.0676723e-02   1.5405443e-01  -1.4057182e-01  -6.7032951e-02   1.2012611e-01  -2.3978189e-01   2.9079943e-01   4.7615290e-01   4.0276381e-01   1.0864793e-01  -2.6984793e-01  -4.7713779e-01   4.6365069e-02  -2.2756715e-01
  -5.8523351e-03  -3.2317128e-03   9.5467049e-03  -8.2778446e-03   3.8540027e-03  -8.9892280e-03   2.5145374e-02   8.8965198e-03   1.0753267e-02   2.2355697e-02   5.9224852e-03  -8.1179125e-02   2.1043995e-02   8.9604004e-03  -1.3662161e-01  -4.5459772e-03   5.4908674e-02  -7.7514042e-02  -1.0315139e-01   4.1631333e-02   5.3624890e-02   1.2361875e-01   2.5536746e-03   8.4121551e-02   7.5432483e-02  -1.4093309e-01
   1.3228987e-02   6.5241019e-04  -5.3968331e-03   1.6460504e-02   8.4865037e-03  -1.2256281e-02   1.7210047e-02  -8.6133393e-03  -4.3556229e-02   1.9084315e-02   8.9343325e-02  -1.9073088e-01  -1.7408488e-02  -2.4227557e-01  -8.2908462e-02   1.4975261e-02  -1.0908232e-01   1.0986951e-01  -5.2936127e-02   2.4025235e-02  -8.6535338e-02   1.7728203e-01   7.5403224e-02  -1.0271293e-01  -1.1050521e-01   5.1670243e-01
   7.1239934e-03   4.6438999e-03  -1.0468275e-02   2.6476008e-02   2.6335981e-02  -2.7691699e-02  -6.8746480e-04   5.1706597e-02  -3.4491680e-02   2.3605426e-03   9.2800113e-02  -2.1117241e-01   3.7778316e-02  -1.8917129e-01  -1.5001387e-01  -3.3697021e-03  -2.9957211e-02   3.8315596e-02  -8.3322670e-02  -2.0442969e-02  -7.7252064e-02   1.8648966e-01  -9.6470706e-02  -2.3228947e-01   1.2704236e-01   2.9669576e-01
  -2.4497268e-03   1.7874964e-02   1.1749742e-02  -1.6069496e-03   6.0228354e-02   2.3116605e-03  -5.5798889e-02  -2.6929884e-02  -3.9871505e-02  -4.8285735e-03   6.1683417e-02  -4.7555788e-02   1.9223015e-01   1.3510525e-01  -1.0420338e-01  -1.7978856e-01   1.4517947e-01   6.4363676e-02  -1.0609359e-01  -1.6387477e-01   2.0833692e-02  -4.3590425e-02   3.4770004e-01   1.4002756e-01  -8.1554856e-03   1.5749194e-01
  -1.1288221e-02  -1.1635452e-02  -5.3309352e-03  -2.9420827e-02  -2.8269300e-02  -6.0412049e-03   2.1162849e-02   1.2918858e-02  -5.5292637e-03   3.2657572e-02   4.7313373e-02   1.9261400e-03   1.3489286e-01  -1.6940529e-01   2.4507746e-02  -1.6773313e-02   9.7106739e-02  -1.7176310e-01  -3.6893570e-02   1.0088504e-01   7.8726668e-02  -2.0772735e-02   1.9980449e-02  -4.7513721e-02  -1.5069273e-01  -8.2876460e-02
   2.0411290e-02   3.2990703e-02  -4.7256264e-03   2.3357049e-02   2.0690269e-02  -3.4974664e-03  -3.8340226e-02   3.8761801e-03  -2.2190382e-02  -5.8200585e-03   5.9580637e-02   5.8110843e-02  -3.8122224e-02   7.3562034e-02   5.5251719e-02  -8.1709900e-02   1.7610597e-02  -2.2559729e-02   2.2435661e-01   1.4417897e-01   5.9404221e-02   6.4996789e-02   1.6906407e-01   1.3672149e-01   2.1637865e-01   1.5088225e-02
  -7.9117077e-03   9.0974843e-03   4.9963570e-03   8.1172164e-03  -1.1308060e-02   3.3286427e-02  -5.4379613e-03  -3.6887739e-02   3.7437729e-02   1.5819967e-02  -3.8100046e-02  -1.4904671e-02  -9.1183905e-02  -6.4762506e-02   1.3776207e-01   9.9209973e-02   1.2651087e-01  -6.3162590e-02  -3.1436617e-02  -3.1206818e-01  -3.0878207e-01   1.1866286e-02  -1.7228823e-01  -4.4049626e-01  -6.0175606e-02   4.3386919e-01
   8.2246545e-04  -7.5261836e-03  -1.1838647e-02   4.0362803e-03   2.8259324e-02  -7.6399780e-05   2.3890012e-02   1.3524414e-02   1.4819905e-02   1.5018040e-02  -2.6346435e-03   7.9661776e-03   3.8348810e-02  -8.9919898e-02   5.2678352e-02   1.0501149e-01  -1.6400773e-01   1.3364014e-01  -7.0048012e-02  -6.0890564e-02   6.7475665e-02   1.4743129e-01  -2.8193719e-02   3.2296409e-01  -2.5142464e-01  -2.0709172e-01
  -1.2048528e-03   1.3637939e-02  -1.9451030e-02   2.5092414e-02  -2.9100754e-02   4.4938579e-02   1.6678835e-02  -5.2538496e-02  -3.1792349e-02   2.9978103e-02  -4.8769022e-02   9.1241825e-03  -6.4033810e-02   6.0288808e-02   1.3248726e-01  -4.0745173e-02   2.4043961e-02   1.2061932e-01   7.6466343e-02   1.1473421e-01   4.7639819e-02  -9.1310445e-02   5.7047949e-01   2.0332292e-01   1.3882831e-01   1.8967887e-02
  -8.4604493e-04   5.4388241e-03   2.4964815e-02  -5.0793781e-03  -5.6863782e-03  -1.8527774e-02  -2.9366093e-02   7.3421903e-02  -5.9772617e-02   3.5370308e-02  -3.0513291e-02  -4.4784223e-02   2.3865997e-02   1.3882465e-01  -1.4159507e-01   2.3578733e-02   5.5859907e-02  -1.8789587e-01   2.5658348e-01   3.8292292e-01   4.2270000e-01   4.9401406e-02  -2.2422281e-01  -3.8488743e-01   8.1588592e-02  -1.4358459e-01
  -6.3731909e-03  -2.9961648e-03   9.5786622e-03  -3.9695228e-03   1.2014758e-02  -7.0291775e-03   1.7861986e-02   6.7991749e-04   1.2970586e-02   2.7027313e-02  -5.7059093e-03  -6.6681413e-02   9.4511936e-03   3.6555844e-02  -1.4252851e-01  -1.4200129e-02   1.4497489e-02  -7.7209454e-02  -8.5249739e-02   1.2166599e-03   7.0334374e-02   4.5666104e-02  -2.4633792e-02   8.4999415e-02   7.4415501e-02  -1.6458463e-01
   1.2373273e-02   2.4212654e-03  -6.7396218e-03   1.6152038e-02   3.8180765e-03  -1.2693820e-02   1.7326969e-02   7.1143567e-03  -3.1911421e-02   1.8998018e-02   8.1865012e-02  -2.1310033e-01  -2.8133525e-02  -2.4561705e-01  -7.4263777e-02   2.2194387e-02  -8.2919299e-02   1.1547247e-01  -6.9805877e-02   2.8195464e-02  -1.0340486e-01   1.7049495e-01   8.0457912e-02  -1.1356194e-01  -1.3321647e-01   4.9943550e-01
   6.8093402e-03   3.2958135e-03  -9.2306100e-03   2.7657618e-02   2.5184912e-02  -2.8312719e-02   1.4874330e-03   5.1166183e-02  -3.2932460e-02   1.7770101e-02   1.0295044e-01  -2.1324824e-01   1.8069667e-02  -1.8591068e-01  -1.4753862e-01   1.4127538e-02  -3.9555292e-02   2.3532974e-02  -4.1892427e-02  -1.4490533e-02  -9.3599772e-02   1.5058342e-01  -1.3224459e-01  -2.2696747e-01   8.6148453e-02   2.9802742e-01
  -3.8768928e-03   2.0024574e-02   1.0393712e-02  -1.3077681e-03   6.2575652e-02   2.9454753e-03  -4.8482608e-02  -2.2648977e-03  -4.1844563e-02  -3.3864997e-04   4.0724345e-02  -3.2446459e-02   1.9265987e-01   1.1982541e-01  -1.1539433e-01  -1.7739665e-01   1.7413105e-01   5.9864561e-02  -1.1677979e-01  -1.6467527e-01   3.2328470e-03  -3.1614723e-02   3.4532214e-01   1.1565929e-01   5.6751471e-02   4.1849851e-02
  -1.1942581e-02  -1.2791537e-02  -4.7975521e-03  -3.1921801e-02  -2.6560000e-02  -8.0514312e-03   2.9403782e-02   1.3128833e-02  -7.4578887e-03   2.5623560e-02   5.5233042e-02   2.3988675e-02   1.4798553e-01  -1.6964391e-01   1.2596786e-02  -1.8026479e-02   6.0693776e-02  -2.0941745e-01  -7.1762737e-02   1.1833112e-01   7.1907021e-02  -4.1935377e-02   7.7935031e-03  -2.7040306e-02  -1.3138435e-01  -1.2889501e-01
   1.8573772e-02   3.2585996e-02  -3.0355500e-03   2.4903313e-02   2.3011354e-02  -3.4807183e-03  -4.0162412e-02   1.6665501e-02  -1.3706264e-02   2.3380262e-03   5.0850386e-02   6.0028528e-02  -3.7142488e-02   8.2930088e-02   7.0050935e-02  -4.8552851e-02  -1.4723292e-02   1.3955644e-02   2.2234190e-01   1.1401072e-01   7.8764818e-02   4.0038753e-02   1.1141448e-01   8.3675244e-02   1.6079215e-01  -5.7991184e-02
  -9.4479255e-03   5.7656811e-03   5.4022926e-03   1.1167382e-02  -2.7180856e-03   2.6915793e-02   7.0991716e-04  -1.9084164e-02   3.4072528e-02   1.3759347e-02  -3.3805980e-02   1.4293799e-03  -9.3264108e-02  -3.9064894e-02   1.2676899e-01   7.7725385e-02   8.4484886e-02  -9.4270345e-03  -4.3818995e-02  -2.6260426e-01  -2.1422010e-01   3.6475371e-03  -1.3485125e-01  -3.7989434e-01  -1.3129428e-01   4.6626726e-01
  -9.6885934e-05  -3.1532085e-03  -1.5965714e-02   9.6395918e-03   3.7167791e-02   6.8946269e-03   2.6261325e-02   1.6797085e-02   9.6968258e-03   5.4405438e-03  -2.2019377e-02  -4.6734560e-02   3.1223848e-02  -6.9922214e-02   1.1156183e-01   2.2731673e-01  -1.8371366e-01   2.2914737e-01  -7.9050162e-02  -5.9492017e-02   6.7207343e-02   2.9027518e-01  -5.7970239e-02   3.8315379e-01  -2.7100407e-01  -2.2394251e-01
   3.4728498e-04   1.1859208e-02  -1.5203469e-02   2.2781506e-02  -1.7689391e-02   3.7314368e-02   9.6693233e-03  -4.3089341e-02  -2.5279346e-02   3.3339301e-02  -2.5752911e-02   2.5772732e-03  -6.1062685e-02   7.3506151e-02   5.4324674e-02  -1.3245939e-02  -3.9479990e-02   1.4775653e-01   7.2830175e-02   8.7147240e-02   9.7730165e-02  -1.6273789e-02   5.3716833e-01   2.7387011e-01   1.4754589e-01  -8.4546129e-02
   1.8358438e-03   7.3754291e-03   2.3466019e-02  -7.8985327e-05   1.7575753e-02  -1.1426406e-02  -2.8449008e-03   5.6198311e-02  -6.7339374e-02   5.5591893e-02  -3.3624481e-02  -9.6759325e-03  -7.8416499e-03   1.0552721e-01  -1.1287804e-01   1.1889105e-01  -5.8266813e-03  -1.0758490e-01   1.8905223e-01   2.4398726e-01   3.6634034e-01   4.0405259e-03  -1.2724632e-01  -2.6419924e-01   1.2089732e-01  -4.0754054e-02
  -6.2400614e-03  -1.9637521e-03   8.6998403e-03   2.8226600e-04   1.9355291e-02  -3.7481606e-03   9.8960983e-03  -1.0535422e-02   1.2394660e-02   2.6367305e-02  -1.4058587e-02  -4.5695496e-02  -2.0638334e-03   5.8517298e-02  -1.3532767e-01  -2.5968714e-02  -2.1877102e-02  -8.1408082e-02  -6.7958751e-02  -3.5432686e-02   7.1461140e-02  -3.1148971e-02  -3.5759296e-02   8.7858393e-02   6.8656784e-02  -1.6556466e-01
   1.1490436e-02   4.0978043e-03  -7.4737587e-03   1.6007373e-02  -1.6604826e-05  -1.2826978e-02   1.4485663e-02   1.8952716e-02  -2.0581980e-02   1.6156934e-02   7.7638595e-02  -2.2732076e-01  -3.6839835e-02  -2.3474862e-01  -6.5238948e-02   2.6729692e-02  -5.4717123e-02   1.1627952e-01  -8.7533745e-02   2.4588057e-02  -1.0955842e-01   1.4460907e-01   7.0705095e-02  -1.1795391e-01  -1.6276998e-01   4.7366478e-01
   6.0280147e-03   1.9878992e-03  -7.7966321e-03   2.8236541e-02   2.2350381e-02  -2.9214041e-02   4.6647033e-03   4.7064723e-02  -2.9500804e-02   3.0808008e-02   1.1332610e-01  -2.1028777e-01  -6.8689220e-03  -1.7914205e-01  -1.4216459e-01   2.9169073e-02  -5.0069052e-02   1.0312137e-02  -4.3807991e-03  -1.2780297e-02  -1.1072188e-01   9.2510979e-02  -1.5795315e-01  -2.0826811e-01   2.2607014e-02   2.8521201e-01
  -5.1335506e-03   2.2920394e-02   8.7972173e-03  -9.9000724e-04   6.3108301e-02   4.0607188e-03  -3.9237758e-02   2.0918988e-02  -4.2399507e-02   2.0160479e-03   1.8273689e-02  -1.7181504e-02   1.9089824e-01   9.7229598e-02  -1.1693483e-01  -1.6377107e-01   2.0395929e-01   5.0087317e-02  -1.4003090e-01  -1.6196102e-01  -2.4445541e-02  -2.3138439e-02   3.4068344e-01   9.5171085e-02   1.0348905e-01  -6.8549942e-02
  -1.1918629e-02  -1.3131282e-02  -4.0326802e-03  -3.3107686e-02  -2.3047201e-02  -1.0240827e-02   3.6423433e-02   1.7298585e-02  -7.1710218e-03   1.7035953e-02   6.1712106e-02   3.7510492e-02   1.5933584e-01  -1.6076390e-01   5.4400785e-03  -1.2295981e-02   4.6310577e-02  -2.2851278e-01  -1.1945887e-01   1.2433279e-01   5.1337625e-02  -3.0194629e-02   1.1189485e-04   1.0199024e-02  -1.0505431e-01  -1.6378947e-01
   1.6336312e-02   3.1756844e-02  -1.2079321e-03   2.6639991e-02   2.6292441e-02  -3.7049191e-03  -4.3234140e-02   2.8424230e-02  -5.2061592e-03   1.0221048e-02   3.8349395e-02   6.0987732e-02  -3.2714686e-02   9.1608439e-02   8.4529748e-02  -1.6549034e-02  -4.0932112e-02   4.6122126e-02   2.1050635e-01   7.5656046e-02   8.8158945e-02   7.0095875e-03   6.2025357e-02   1.7576447e-02   9.4073528e-02  -1.2678392e-01
  -1.0224146e-02   1.6708772e-03   6.3914024e-03   1.1764985e-02   4.4282872e-03   1.9811249e-02   5.6502951e-03  -2.8277861e-03   3.0345399e-02   9.3505847e-03  -2.6242942e-02   1.4636477e-02  -9.2146814e-02  -1.7781895e-02   1.0634141e-01   4.9090809e-02   4.3280985e-02   3.4726302e-02  -6.1060963e-02  -2.0088841e-01  -1.2561840e-01  -7.8063804e-03  -9.5212646e-02  -3.1410106e-01  -1.9095329e-01   4.7382042e-01
  -1.8368840e-03   5.4740813e-04  -1.8080539e-02   1.2748565e-02   3.9901209e-02   1.3580482e-02   2.7335478e-02   1.3422703e-02   4.4779119e-03  -8.9618216e-03  -3.2134975e-02  -8.7250153e-02   1.8573168e-02  -6.0025156e-02   1.6461407e-01   2.9703282e-01  -1.7941557e-01   2.9235414e-01  -9.1513128e-02  -6.3512343e-02   1.8067278e-02   3.8436262e-01  -4.6918005e-02   4.2065791e-01  -2.3887457e-01  -2.1517211e-01
   1.8392590e-03   8.6625986e-03  -1.0772777e-02   2.0945620e-02  -4.9971639e-03   2.7387436e-02   3.8923710e-03  -2.8514392e-02  -1.4486645e-02   2.8683056e-02  -5.6592426e-03  -2.3204853e-03  -5.2118657e-02   7.4424088e-02  -2.5962505e-02   1.8472088e-02  -9.9962997e-02   1.6647609e-01   6.4660947e-02   5.7515177e-02   1.5295262e-01   7.0250488e-02   4.8743323e-01   3.3048338e-01   1.4881263e-01  -1.8633173e-01
   4.1148974e-03   9.1768229e-03   2.2612746e-02   6.1339914e-03   3.4979025e-02  -3.5657136e-04   2.1952813e-02   3.3889277e-02  -6.9617445e-02   5.8347832e-02  -3.6994588e-02   1.6063079e-02  -4.8285674e-02   5.5811212e-02  -6.4541721e-02   1.9603593e-01  -5.2543365e-02  -2.0638815e-02   9.9735925e-02   8.1600469e-02   2.3865764e-01  -3.4694994e-02   8.4119094e-03  -1.3647926e-01   1.6718734e-01   6.7525364e-02
  -5.3411518e-03  -1.7113642e-04   7.1151446e-03   4.1857817e-03   2.5060158e-02   6.3680662e-04   2.1014557e-03  -2.2429309e-02   9.5992358e-03   2.0274579e-02  -1.8897708e-02  -2.0934061e-02  -1.3001513e-02   7.4773427e-02  -1.1593179e-01  -3.8209564e-02  -4.9759336e-02  -8.6132843e-02  -5.4361168e-02  -6.3989261e-02   5.6112436e-02  -9.5433067e-02  -3.2860824e-02   9.6196470e-02   6.2144214e-02  -1.4523570e-01
   1.0595765e-02   5.3329463e-03  -7.4772249e-03   1.6055437e-02  -2.5225756e-03  -1.2885182e-02   8.9655663e-03   2.7135950e-02  -1.0251033e-02   1.1676676e-02   7.6926221e-02  -2.3295922e-01  -4.3306971e-02  -2.1061874e-01  -5.9212195e-02   2.6355368e-02  -2.6968011e-02   1.1307295e-01  -1.0133382e-01   1.4260608e-02  -1.0452912e-01   1.0373671e-01   4.8789916e-02  -1.1900792e-01  -1.9526569e-01   4.3791032e-01
   4.8576663e-03   9.9249605e-04  -6.2818280e-03   2.8082196e-02   1.7994775e-02  -3.0286323e-02   8.2821887e-03   3.9369763e-02  -2.5427263e-02   3.8965259e-02   1.2373829e-01  -2.0250769e-01  -3.5225942e-02  -1.7018559e-01  -1.3303808e-01   4.1770168e-02  -6.0384422e-02   7.0737715e-04   2.4147459e-02  -1.5932600e-02  -1.2518550e-01   1.9462966e-02  -1.7116185e-01  -1.7356082e-01  -5.3730888e-02   2.5866950e-01
  -6.3341834e-03   2.6366883e-02   7.0489531e-03  -6.2750251e-04   6.1706046e-02   5.3962968e-03  -2.8934630e-02   4.1619836e-02  -4.1282869e-02   2.3395003e-03  -2.2623274e-03  -2.3379609e-03   1.8432686e-01   6.8147805e-02  -1.0921664e-01  -1.3945029e-01   2.3048582e-01   3.6186040e-02  -1.7234994e-01  -1.5793098e-01  -6.0324356e-02  -1.6793368e-02   3.2999860e-01   8.3760074e-02   1.3513772e-01  -1.7655948e-01
  -1.1440099e-02  -1.2599669e-02  -2.9595834e-03  -3.2793592e-02  -1.7823814e-02  -1.2178034e-02   4.1276022e-02   2.2944775e-02  -4.7313595e-03   8.4055694e-03   6.5346354e-02   4.0738851e-02   1.6742915e-01  -1.4361692e-01   1.2586681e-03  -2.3061373e-03   5.1494268e-02  -2.2831894e-01  -1.7387292e-01   1.1626860e-01   2.4338984e-02   3.6389530e-03  -6.5644075e-03   5.6633043e-02  -7.1380677e-02  -1.8248782e-01
   1.3915576e-02   3.0547171e-02   6.7367205e-04   2.8270869e-02   2.9720323e-02  -4.0000660e-03  -4.7230491e-02   3.7982680e-02   1.9273105e-03   1.6350572e-02   2.4820487e-02   6.1619154e-02  -2.4483421e-02   9.7577820e-02   9.9086546e-02   1.2904816e-02  -5.7937851e-02   6.9259937e-02   1.8918907e-01   3.2079428e-02   8.5816784e-02  -3.1050465e-02   2.4454397e-02  -5.4450012e-02   2.2479971e-02  -1.8274116e-01
  -1.0188241e-02  -2.7980173e-03   7.6441851e-03   1.0122252e-02   9.2517799e-03   1.2363960e-02   9.2185390e-03   1.2153091e-02   2.6139735e-02   3.3279709e-03  -1.7385325e-02   2.4317633e-02  -8.7620767e-02   1.0774731e-04   7.8681131e-02   1.4315885e-02   8.2876022e-03   6.6888954e-02  -7.9997144e-02  -1.2557847e-01  -4.4793050e-02  -2.3501259e-02  -5.8555102e-02  -2.4425632e-01  -2.3587902e-01   4.5785300e-01
  -3.9437231e-03   2.8576951e-03  -1.8262039e-02   1.2359858e-02   3.4425696e-02   1.8827767e-02   2.3126846e-02   6.1290377e-03  -1.5720934e-03  -2.5266449e-02  -3.1995045e-02  -1.0906419e-01   7.7155451e-03  -5.7174636e-02   2.0025471e-01   2.9790281e-01  -1.4740784e-01   3.0142574e-01  -9.6254806e-02  -6.3986542e-02  -5.3869323e-02   4.0849212e-01  -2.3735073e-02   4.2351212e-01  -1.6506781e-01  -1.9270980e-01
   3.2203512e-03   4.4075230e-03  -6.7161403e-03   1.9983926e-02   7.6374802e-03   1.6671794e-02   5.5288523e-06  -9.7933896e-03  -6.0429403e-04   1.7687186e-02   7.3989351e-03  -7.0336090e-03  -3.7825330e-02   5.9801609e-02  -9.7704909e-02   5.5778997e-02  -1.5205573e-01   1.7537387e-01   5.4151658e-02   2.8413154e-02   2.0225448e-01   1.6195311e-01   4.2087654e-01   3.6335429e-01   1.4489135e-01  -2.7683633e-01
   5.9928922e-03   1.0155250e-02   2.2639839e-02   1.1762047e-02   4.4266516e-02   1.2655902e-02   4.1365866e-02   1.0822881e-02  -6.6962287e-02   4.7369124e-02  -4.0087121e-02   3.4336363e-02  -8.9131821e-02  -4.4786510e-03  -9.6426251e-03   2.3768855e-01  -7.5869742e-02   5.1554702e-02   3.6502242e-03  -7.8217493e-02   6.2101791e-02  -7.4333345e-02   1.5665796e-01  -2.1299761e-02   2.1675168e-01   1.6591756e-01
  -3.6852906e-03   2.2399003e-03   5.1221699e-03   7.5088310e-03   2.8617555e-02   5.7867037e-03  -4.7337461e-03  -3.2836472e-02   5.4025644e-03   9.6543104e-03  -2.0583794e-02   4.4379437e-03  -2.3232140e-02   8.5590246e-02  -8.6727307e-02  -4.9383092e-02  -6.6794698e-02  -8.7115050e-02  -4.5337803e-02  -8.1287550e-02   2.6400809e-02  -1.3892514e-01  -1.9329286e-02   1.1092717e-01   5.7663955e-02  -1.0776816e-01
   9.7352855e-03   5.8120861e-03  -6.6761965e-03   1.6296586e-02  -3.2648945e-03  -1.3047214e-02   1.2764748e-03   3.2032167e-02  -1.5463202e-03   6.6141890e-03   7.9301278e-02  -2.2999383e-01  -4.6848337e-02  -1.7462534e-01  -5.9254513e-02   1.8970708e-02  -1.7522117e-03   1.0653803e-01  -1.0733579e-01  -8.5646433e-04  -8.8618026e-02   5.2180938e-02   1.9390508e-02  -1.2059633e-01  -2.2762229e-01   3.9245676e-01
   3.3954746e-03   5.1292487e-04  -4.8079397e-03   2.7079069e-02   1.2353114e-02  -3.1355773e-02   1.1760861e-02   2.8527928e-02  -2.1891192e-02   4.0525995e-02   1.3368617e-01  -1.9023514e-01  -6.4767895e-02  -1.6010122e-01  -1.1956746e-01   5.2102045e-02  -6.9177914e-02  -4.1006537e-03   4.0074122e-02  -2.4180558e-02  -1.3361314e-01  -6.0251479e-02  -1.7166955e-01  -1.2247171e-01  -1.3144588e-01   2.1910113e-01
  -7.5945423e-03   3.0077398e-02   5.2395216e-03  -1.4488235e-04   5.8478133e-02   6.5473091e-03  -1.8543571e-02   5.9443901e-02  -3.8045782e-02   1.2979217e-03  -1.7989760e-02   1.1124785e-02   1.7088487e-01   3.4098308e-02  -9.4169025e-02  -1.0638118e-01   2.5014088e-01   1.9253053e-02  -2.0819484e-01  -1.5350643e-01  -1.0119700e-01  -1.0975959e-02   3.0982481e-01   8.2926098e-02   1.5413791e-01  -2.8505645e-01
  -1.0833179e-02  -1.1276999e-02  -1.4791015e-03  -3.0935958e-02  -1.1249540e-02  -1.3459999e-02   4.3313743e-02   2.7226859e-02  -4.4505799e-04   1.5129035e-03   6.4641064e-02   3.2788675e-02   1.7133020e-01  -1.2013213e-01  -2.3844307e-03   8.1047608e-03   7.1068115e-02  -2.1016158e-01  -2.2759784e-01   9.3870861e-02  -4.6486536e-04   4.3178391e-02  -1.6232565e-02   1.0208431e-01  -3.0818969e-02  -1.8158049e-01
   1.1572559e-02   2.9017497e-02   2.5150819e-03   2.9537074e-02   3.2588375e-02  -4.1889369e-03  -5.1770685e-02   4.4642155e-02   6.7119432e-03   1.9761911e-02   1.2565303e-02   6.2485068e-02  -1.2947001e-02   9.9663804e-02   1.1345679e-01   3.8944196e-02  -6.4576927e-02   8.1532408e-02   1.5960971e-01  -1.2994565e-02   7.1297140e-02  -7.0421974e-02  -4.2726180e-04  -1.2390016e-01  -4.6731268e-02  -2.2037569e-01
  -9.3231951e-03  -7.1515768e-03   8.7889733e-03   6.6414618e-03   1.1529925e-02   4.8935793e-03   1.1599391e-02   2.6368110e-02   2.1263376e-02  -3.0665373e-03  -9.3186204e-03   3.0051888e-02  -7.9734387e-02   1.6817162e-02   4.6208017e-02  -2.2739637e-02  -1.6769167e-02   8.7484814e-02  -9.7316319e-02  -3.6895213e-02   2.8112275e-02  -4.1943196e-02  -2.8827583e-02  -1.6944455e-01  -2.6471772e-01   4.2044225e-01
  -5.8314007e-03   3.4907750e-03  -1.7270887e-02   8.3048965e-03   2.1176611e-02   2.1569548e-02   1.1256315e-02  -1.0834914e-03  -9.5476772e-03  -3.8338364e-02  -2.3511681e-02  -1.1104185e-01   5.9774103e-03  -5.5076528e-02   2.1032296e-01   2.3214182e-01  -9.0380520e-02   2.4806699e-01  -8.2132484e-02  -5.1954238e-02  -1.1330719e-01   3.5609096e-01  -2.1509492e-02   3.8636660e-01  -6.8680675e-02  -1.6810828e-01
   4.4286884e-03  -4.7222273e-04  -3.5104641e-03   2.0086067e-02   1.9090485e-02   6.5518608e-03  -1.7313074e-03   1.1576331e-02   1.4879914e-02   2.6231366e-03   1.0614188e-02  -1.2391280e-02  -1.9138112e-02   2.8404223e-02  -1.5192729e-01   9.8863105e-02  -1.9172901e-01   1.7386669e-01   4.4182641e-02   1.3338744e-03   2.3664689e-01   2.5101527e-01   3.3785316e-01   3.6533969e-01   1.3735978e-01  -3.4776572e-01
   7.5956475e-03   9.8652747e-03   2.3268267e-02   1.5317273e-02   4.4794934e-02   2.5350252e-02   5.2523205e-02  -8.7380293e-03  -6.0146991e-02   2.8080411e-02  -4.2441426e-02   4.6694733e-02  -1.2204907e-01  -6.6274263e-02   3.9028250e-02   2.3627116e-01  -7.3004172e-02   9.3743623e-02  -8.4115382e-02  -2.1014115e-01  -1.2921613e-01  -1.1901586e-01   2.8536041e-01   6.7507464e-02   2.6038505e-01   2.4035767e-01
  -1.4182113e-03   5.0269605e-03   3.0768889e-03   1.0079492e-02   2.9803019e-02   1.1254220e-02  -9.9297322e-03  -4.0024552e-02   7.1313339e-04  -3.6888172e-03  -1.9963103e-02   2.6998668e-02  -3.2739258e-02   9.1218931e-02  -5.1221143e-02  -5.8253725e-02  -7.2569941e-02  -8.0636031e-02  -3.9592134e-02  -8.5470072e-02  -1.2756015e-02  -1.5765795e-01   9.5053227e-04   1.2993534e-01   5.6354099e-02  -5.9335470e-02
   8.9800625e-03   5.3090092e-03  -5.0486984e-03   1.6693213e-02  -1.9401515e-03  -1.3390704e-02  -7.8688997e-03   3.3923520e-02   4.8966853e-03   1.7271851e-03   8.3821265e-02  -2.1868597e-01  -4.6409142e-02  -1.2856565e-01  -6.7459153e-02   3.1107439e-03   1.9382128e-02   9.7353120e-02  -1.0340616e-01  -1.8495294e-02  -6.2969559e-02  -5.8496553e-03  -1.1215459e-02  -1.2612485e-01  -2.5718892e-01   3.3927098e-01
   1.7516605e-03   6.5358356e-04  -3.5021292e-03   2.5146380e-02   5.7429792e-03  -3.2208142e-02   1.4575414e-02   1.5520658e-02  -1.9817493e-02   3.4861930e-02   1.4224681e-01  -1.7398131e-01  -9.2916453e-02  -1.4957991e-01  -1.0169444e-01   6.0183784e-02  -7.4918303e-02  -3.9871646e-03   4.1797045e-02  -3.7113197e-02  -1.3313255e-01  -1.3790899e-01  -1.6138386e-01  -5.7891078e-02  -1.9893892e-01   1.6781806e-01
  -9.0091063e-03   3.3689754e-02   3.4593487e-03   5.6981914e-04   5.3783722e-02   7.0033052e-03  -9.0640297e-03   7.4578536e-02  -3.2118185e-02   3.5379722e-05  -2.6724980e-02   2.1997400e-02   1.4937159e-01  -2.7618718e-03  -7.5022632e-02  -6.7819605e-02   2.6040751e-01   9.9094386e-05  -2.4041980e-01  -1.4816247e-01  -1.4299331e-01  -3.9507367e-03   2.7782073e-01   9.0253938e-02   1.6182231e-01  -3.9613101e-01
  -1.0441345e-02  -9.3587695e-03   4.7582721e-04  -2.7636794e-02  -3.9183266e-03  -1.3806039e-02   4.2257897e-02   2.7634607e-02   5.1700168e-03  -1.8657964e-03   5.8412998e-02   1.3637757e-02   1.7064611e-01  -9.3113233e-02  -7.8376080e-03   1.4899441e-02   9.8573067e-02  -1.7713113e-01  -2.7290575e-01   5.9371735e-02  -1.4973348e-02   7.0520127e-02  -3.1807941e-02   1.3592453e-01   1.4803770e-02  -1.5974636e-01
   9.5905676e-03   2.7244158e-02   4.2129138e-03   3.0245755e-02   3.4374168e-02  -4.1006190e-03  -5.6443964e-02   4.8226824e-02   8.7102932e-03   2.0142093e-02   3.1164003e-03   6.3882881e-02   5.9912469e-04   9.7610984e-02   1.2661484e-01   6.1075674e-02  -6.1594387e-02   8.4160300e-02   1.2406205e-01  -5.5263835e-02   4.5510744e-02  -1.0722746e-01  -1.4335834e-02  -1.8225287e-01  -1.0584612e-01  -2.3742508e-01
  -7.6750063e-03  -1.0837580e-02   9.4886610e-03   1.8643206e-03   1.1586861e-02  -2.2782267e-03   1.3340774e-02   4.0207322e-02   1.5521279e-02  -8.4730069e-03  -3.9080002e-03   3.1499241e-02  -6.9106009e-02   3.5049276e-02   1.1696855e-02  -5.6415846e-02  -2.9743142e-02   9.9513842e-02  -1.1043820e-01   6.2628087e-02   9.2596902e-02  -5.9764024e-02  -6.7631994e-03  -8.6995273e-02  -2.7695270e-01   3.6481019e-01
  -6.9583284e-03   2.6666152e-03  -1.6201068e-02   1.4028454e-03   2.9694060e-03   2.1210997e-02  -8.0489128e-03  -4.4085670e-03  -2.0375152e-02  -4.2707705e-02  -1.0856648e-02  -9.5596348e-02   1.8054914e-02  -4.7053817e-02   1.9270513e-01   1.1949511e-01  -1.6843831e-02   1.4058034e-01  -4.2538878e-02  -2.3200091e-02  -1.2894819e-01   2.3701535e-01  -6.4620960e-02   3.1230436e-01   2.7935821e-02  -1.4858974e-01
   5.3861325e-03  -5.4864561e-03  -1.5071806e-03   2.1242273e-02   2.8494899e-02  -1.7722671e-03  -1.4796313e-03   3.3527990e-02   3.0266967e-02  -1.4037515e-02   2.8528363e-03  -1.8477375e-02   2.5461932e-03  -1.8890747e-02  -1.8183267e-01   1.4645115e-01  -2.1647389e-01   1.6232714e-01   3.7728296e-02  -2.3686671e-02   2.4958891e-01   3.2852326e-01   2.4061313e-01   3.3292419e-01   1.2738697e-01  -3.9248802e-01
   9.0643238e-03   8.2271987e-03   2.3871266e-02   1.5933033e-02   3.7610330e-02   3.5653733e-02   5.4155999e-02  -2.1629874e-02  -5.0073269e-02   6.2006657e-03  -4.3544768e-02   5.3768247e-02  -1.4095225e-01  -1.1920184e-01   7.1827978e-02   1.9516986e-01  -4.7095901e-02   1.0065017e-01  -1.5188912e-01  -2.9425145e-01  -2.9848677e-01  -1.6708757e-01   3.6594715e-01   1.2421053e-01   2.8646396e-01   2.8083509e-01
   1.1817131e-03   7.8633738e-03   1.3506754e-03   1.1782124e-02   2.8629683e-02   1.6506011e-02  -1.2958364e-02  -4.2875304e-02  -3.6347535e-03  -1.7283857e-02  -1.8170841e-02   4.3320617e-02  -4.1373332e-02   9.1616099e-02  -1.3532598e-02  -6.3998556e-02  -6.8148889e-02  -6.4319712e-02  -3.4094091e-02  -7.6053163e-02  -5.4322614e-02  -1.5236208e-01   2.4481710e-02   1.4829704e-01   5.7496840e-02  -7.1609432e-03
   8.4123299e-03   3.7332937e-03  -2.6262476e-03   1.7165665e-02   1.5508346e-03  -1.3862206e-02  -1.7590593e-02   3.2869681e-02   8.4009699e-03  -2.6888062e-03   8.9225378e-02  -1.9950655e-01  -4.0793609e-02  -7.4664046e-02  -8.4426283e-02  -2.1591276e-02   3.5455406e-02   8.6305458e-02  -8.9726954e-02  -3.6599145e-02  -2.9591435e-02  -6.6440894e-02  -3.5891655e-02  -1.3739637e-01  -2.8124965e-01   2.8162197e-01
   4.4989167e-05   1.4032424e-03  -2.4939719e-03   2.2266077e-02  -1.4188722e-03  -3.2615358e-02   1.6308325e-02   1.8279594e-03  -1.9727409e-02   2.2571936e-02   1.4810048e-01  -1.5450469e-01  -1.1691038e-01  -1.3888348e-01  -8.0085019e-02   6.5649739e-02  -7.5966562e-02   7.5480335e-05   3.0075288e-02  -5.3499627e-02  -1.2181670e-01  -2.0507516e-01  -1.4382565e-01   1.3585556e-02  -2.4589451e-01   1.0714900e-01
  -1.0632194e-02   3.6796788e-02   1.7963873e-03   1.6449825e-03   4.8217649e-02   6.2143909e-03  -1.4395051e-03   8.7665951e-02  -2.2938652e-02   4.3095701e-06  -2.7095674e-02   2.9031346e-02   1.1962893e-01  -3.9780095e-02  -5.5849780e-02  -2.8040414e-02   2.6012054e-01  -2.0873204e-02  -2.6101673e-01  -1.4004239e-01  -1.8139983e-01   6.0629720e-03   2.3343560e-01   9.9878560e-02   1.5839292e-01  -5.1040444e-01
  -1.0536807e-02  -7.1224104e-03   2.8816343e-03  -2.3147453e-02   3.4035209e-03  -1.3124963e-02   3.8240671e-02   2.2603464e-02   1.1417447e-02  -3.0732633e-04   4.6222623e-02  -1.5727389e-02   1.6544226e-01  -6.5942349e-02  -1.6624307e-02   1.4741796e-02   1.2760329e-01  -1.3383413e-01  -3.0282922e-01   1.7296419e-02  -1.3438740e-02   7.0498374e-02  -5.3828234e-02   1.4938522e-01   6.1940892e-02  -1.1813036e-01
   8.2474427e-03   2.5316637e-02   5.6582122e-03   3.0285756e-02   3.4785410e-02  -3.5872126e-03  -6.0842707e-02   4.9050748e-02   8.0888660e-03   1.7863815e-02  -2.9325692e-03   6.5695377e-02   1.4253309e-02   9.2017510e-02   1.3681536e-01   7.8971275e-02  -5.1341949e-02   8.1146149e-02   8.5963606e-02  -9.0126294e-02   1.0617642e-02  -1.3796124e-01  -2.1093945e-02  -2.2235948e-01  -1.4737499e-01  -2.3455979e-01
  -5.3693967e-03  -1.3305020e-02   9.5157328e-03  -3.6122022e-03   1.0062541e-02  -8.7798988e-03   1.5215552e-02   5.3677126e-02   8.7726400e-03  -1.1756893e-02  -2.4709072e-03   2.8575915e-02  -5.7012679e-02   5.7329119e-02  -2.1836264e-02  -8.0920651e-02  -2.9738427e-02   1.0747312e-01  -1.1796485e-01   1.6805367e-01   1.4648947e-01  -7.2988152e-02   1.0895871e-02   6.6592148e-03  -2.7197435e-01   2.9537844e-01
  -6.9865172e-03   1.0400415e-03  -1.6022457e-02  -6.6511944e-03  -1.5773990e-02   1.7895681e-02  -3.1720068e-02  -1.5425887e-03  -3.4301938e-02  -3.4563941e-02   7.1609071e-04  -6.7998820e-02   4.4243180e-02  -2.8984243e-02   1.5222154e-01  -8.4150330e-03   6.0959761e-02   2.2300741e-03   2.1594582e-02   1.8528022e-02  -8.5271870e-02   7.5519299e-02  -1.5854683e-01   2.1214885e-01   1.0560600e-01  -1.3492556e-01
   5.9990527e-03  -1.0114576e-02  -9.0434758e-04   2.3265588e-02   3.5224740e-02  -7.3176717e-03   1.8016748e-04   5.3468840e-02   4.3752872e-02  -2.9988822e-02  -1.5168211e-02  -2.4646255e-02   2.5355371e-02  -7.9173695e-02  -1.8311694e-01   1.9562655e-01  -2.2531733e-01   1.4198978e-01   3.7319140e-02  -4.8055855e-02   2.3719931e-01   3.8502656e-01   1.3401518e-01   2.6669735e-01   1.1607190e-01  -4.0640997e-01
   1.0447014e-02   5.5478817e-03   2.3763118e-02   1.3508411e-02   2.5087980e-02   4.2043251e-02   4.7008539e-02  -2.6617301e-02  -3.7462773e-02  -1.3721543e-02  -4.2552204e-02   5.5197717e-02  -1.4367915e-01  -1.5388105e-01   8.4098598e-02   1.2682062e-01  -6.2834973e-03   7.7867725e-02  -1.9396254e-01  -3.1979195e-01  -4.1556375e-01  -2.1064064e-01   3.8212059e-01   1.5149811e-01   2.8490022e-01   2.8304314e-01
   3.7297427e-03   1.0366991e-02   2.8264147e-04   1.2550755e-02   2.5281917e-02   2.0956301e-02  -1.3481504e-02  -4.0962433e-02  -7.0312521e-03  -2.8339720e-02  -1.6372427e-02   5.0309275e-02  -4.8668799e-02   8.6295974e-02   2.2205372e-02  -6.6217541e-02  -5.5453194e-02  -3.7764101e-02  -2.4881110e-02  -5.3944088e-02  -9.0244993e-02  -1.2805306e-01   4.8921016e-02   1.5913835e-01   5.8603283e-02   4.1403472e-02
   8.1066831e-03   1.1628321e-03   5.0543889e-04   1.7595234e-02   7.0422114e-03  -1.4275937e-02  -2.6895266e-02   2.8685504e-02   8.2610262e-03  -6.8545206e-03   9.4129100e-02  -1.7313583e-01  -2.8984518e-02  -1.5650940e-02  -1.0899336e-01  -5.4072944e-02   4.6016661e-02   7.4377445e-02  -6.9003061e-02  -5.3767815e-02   8.7183608e-03  -1.2613200e-01  -4.7675398e-02  -1.5376412e-01  -2.9664949e-01   2.2348979e-01
  -1.6009702e-03   2.6337876e-03  -1.9081858e-03   1.8513416e-02  -8.6036903e-03  -3.2363531e-02   1.6686069e-02  -1.0709765e-02  -2.1660164e-02   5.4385646e-03   1.4970442e-01  -1.3283788e-01  -1.3404577e-01  -1.2784336e-01  -5.6194425e-02   6.7644164e-02  -7.0763199e-02   6.1414421e-03   8.0669594e-03  -7.1255557e-02  -9.9069274e-02  -2.5426730e-01  -1.2332037e-01   8.1912416e-02  -2.6463595e-01   4.0772397e-02
  -1.2465852e-02   3.8990848e-02   3.3251445e-04   3.1986587e-03   4.2555651e-02   3.6786108e-03   3.5381084e-03   9.9609232e-02  -1.0113902e-02   2.7379997e-03  -1.8562593e-02   3.1181805e-02   8.2573397e-02  -7.4057408e-02  -4.0937883e-02   8.1180488e-03   2.4958232e-01  -4.3683553e-02  -2.6208996e-01  -1.2632477e-01  -2.1256128e-01   2.0810454e-02   1.7840127e-01   1.0356167e-01   1.4331057e-01  -6.2656920e-01
  -1.1245084e-02  -4.8854004e-03   5.5773550e-03  -1.7872422e-02   9.8578890e-03  -1.1544986e-02   3.1818048e-02   1.1950735e-02   1.7463979e-02   6.8855500e-03   2.8749172e-02  -5.3052148e-02   1.5616239e-01  -4.2222146e-02  -2.8856511e-02   5.7119047e-03   1.5288469e-01  -8.6180774e-02  -3.1225073e-01  -2.6070897e-02   6.0110540e-03   3.4396961e-02  -7.9695009e-02   1.3758249e-01   1.0538461e-01  -6.0650128e-02
   7.7840651e-03   2.3333006e-02   6.7420310e-03   2.9630360e-02   3.3773988e-02  -2.5430074e-03  -6.4601495e-02   4.7811374e-02   5.5833473e-03   1.3910284e-02  -5.9238964e-03   6.7323631e-02   2.5807134e-02   8.4159467e-02   1.4178052e-01   9.2281043e-02  -3.7242556e-02   7.8543330e-02   4.9701780e-02  -1.1306505e-01  -3.0191503e-02  -1.5994751e-01  -2.5855274e-02  -2.3963872e-01  -1.6481492e-01  -2.1475633e-01
  -2.6106983e-03  -1.4084948e-02   8.7910337e-03  -9.2397219e-03   7.6386981e-03  -1.4187556e-02   1.7960785e-02   6.6297480e-02   9.5900091e-04  -1.2208885e-02  -5.5256094e-03   2.1645003e-02  -4.5209920e-02   8.5520784e-02  -5.1492606e-02  -9.2125792e-02  -1.6700133e-02   1.1575944e-01  -1.1963138e-01   2.7267562e-01   1.8583887e-01  -7.8611765e-02   3.0615502e-02   1.1473931e-01  -2.4866417e-01   2.1742789e-01
  -5.8718988e-03  -5.0819996e-04  -1.7183860e-02  -1.3657014e-02  -3.0250411e-02   1.2551909e-02  -5.4520520e-02   7.5812916e-03  -5.0589704e-02  -1.3224080e-02   6.2504120e-03  -3.5026791e-02   8.0099646e-02  -1.3433386e-03   9.9441413e-02  -1.1683247e-01   1.3003932e-01  -1.3481861e-01   1.0131221e-01   6.1168664e-02   1.0969207e-02  -9.5314185e-02  -2.8626047e-01   1.0152592e-01   1.5331993e-01  -1.2156786e-01
   6.1674635e-03  -1.3841357e-02  -1.7399095e-03   2.5822696e-02   3.8847240e-02  -9.3459413e-03   2.2829705e-03   6.8452560e-02   5.3556956e-02  -4.3373572e-02  -4.0926681e-02  -2.9663934e-02   4.7024109e-02  -1.4773560e-01  -1.5416931e-01   2.4184820e-01  -2.1870914e-01   1.1467059e-01   4.4646046e-02  -7.4188465e-02   1.9842859e-01   4.1126493e-01   2.5565727e-02   1.7131603e-01   1.0467672e-01  -3.8734765e-01
   1.1629637e-02   2.4289572e-03   2.2501481e-02   8.6551250e-03   1.0247842e-02   4.3761192e-02   3.3680256e-02  -2.4733621e-02  -2.2657202e-02  -2.9404895e-02  -3.8022947e-02   5.0034504e-02  -1.3261842e-01  -1.6395772e-01   7.6519837e-02   4.8353366e-02   3.8256008e-02   3.9538430e-02  -2.1139118e-01  -2.8689618e-01  -4.6396679e-01  -2.3725894e-01   3.3481625e-01   1.5877686e-01   2.5060233e-01   2.4860307e-01
   5.7815424e-03   1.2141043e-02   1.3235997e-04   1.2361688e-02   2.0048779e-02   2.4014076e-02  -1.1377120e-02  -3.4534466e-02  -9.2026496e-03  -3.4177344e-02  -1.5478717e-02   4.5636067e-02  -5.3760632e-02   7.4353545e-02   5.2455915e-02  -6.4855711e-02  -3.6642028e-02  -2.9007809e-03  -8.1104096e-03  -2.1428689e-02  -1.1281755e-01  -9.2854439e-02   7.3595121e-02   1.5500145e-01   5.5830042e-02   7.9612827e-02
   8.1094503e-03  -2.1449403e-03   4.2054113e-03   1.7834280e-02   1.4067383e-02  -1.4346452e-02  -3.4751533e-02   2.1037628e-02   3.8134129e-03  -1.1439496e-02   9.7203884e-02  -1.4053039e-01  -1.0487052e-02   4.5150779e-02  -1.3825875e-01  -9.1702677e-02   5.1063728e-02   6.2778247e-02  -4.6237306e-02  -6.9519272e-02   4.8585929e-02  -1.8204540e-01  -4.1017810e-02  -1.7177126e-01  -2.9969604e-01   1.6881285e-01
  -3.0619919e-03   4.1150649e-03  -1.8516081e-03   1.4082812e-02  -1.5173797e-02  -3.1281987e-02   1.5597037e-02  -2.0122501e-02  -2.5174833e-02  -1.3801528e-02   1.4559606e-01  -1.1026182e-01  -1.4197569e-01  -1.1592718e-01  -3.2187417e-02   6.4869407e-02  -5.8075180e-02   1.1575970e-02  -1.8983830e-02  -8.7587906e-02  -6.5907910e-02  -2.7956172e-01  -1.0399972e-01   1.3458287e-01  -2.5120365e-01  -2.6164065e-02
  -1.4457011e-02   3.9918688e-02  -8.6275107e-04   5.3056194e-03   3.7657840e-02  -9.6149396e-04   5.3284461e-03   1.1134904e-01   6.4248549e-03   9.5986147e-03  -1.3835362e-03   2.7835570e-02   4.0081752e-02  -1.0280021e-01  -3.4074230e-02   3.5830806e-02   2.3049140e-01  -6.8663909e-02  -2.3697565e-01  -1.0378099e-01  -2.3373804e-01   4.1919950e-02   1.1688871e-01   9.2207078e-02   1.1600867e-01  -7.4125118e-01
  -1.2495878e-02  -2.9601995e-03   8.2450692e-03  -1.2365203e-02   1.4587007e-02  -9.3997094e-03   2.3943625e-02  -2.9382197e-03   2.2394132e-02   1.9364797e-02   8.0048626e-03  -9.4563759e-02   1.4355424e-01  -2.5383338e-02  -4.2932064e-02  -1.2286586e-02   1.7096853e-01  -4.1165470e-02  -2.9882722e-01  -6.3471138e-02   4.0411150e-02  -3.7570127e-02  -1.0362584e-01   1.0092024e-01   1.3874251e-01   5.9515385e-03
   8.3717061e-03   2.1394122e-02   7.3623092e-03   2.8328925e-02   3.1521488e-02  -9.2403105e-04  -6.7438168e-02   4.5428926e-02   2.3723472e-03   9.6969349e-03  -6.9687587e-03   6.7729750e-02   3.3114000e-02   7.5742335e-02   1.3902507e-01   1.0052331e-01  -2.3110993e-02   8.3357668e-02   2.0238650e-02  -1.2014075e-01  -7.3015383e-02  -1.7165302e-01  -3.4152920e-02  -2.3288286e-01  -1.5341507e-01  -1.8248449e-01
   3.3752459e-04  -1.2872462e-02   7.3748557e-03  -1.4617495e-02   4.8053349e-03  -1.8071421e-02   2.1972580e-02   7.7173619e-02  -7.8939137e-03  -9.5629529e-03  -1.2673535e-02   1.1656282e-02  -3.5526505e-02   1.2058916e-01  -7.4981723e-02  -8.8966340e-02   8.9134276e-03   1.2703607e-01  -1.1586007e-01   3.6921820e-01   2.0605170e-01  -7.6048999e-02   5.9908533e-02   2.3874465e-01  -2.0564630e-01   1.3643292e-01
  -3.8588031e-03  -1.1647903e-03  -1.9422670e-02  -1.7466673e-02  -3.6608145e-02   6.6797374e-03  -7.0495044e-02   2.0842430e-02  -6.7523241e-02   1.8387409e-02   2.3184952e-03  -3.3029355e-03   1.1770719e-01   3.0333497e-02   4.7715147e-02  -1.7732027e-01   1.7978108e-01  -2.3842450e-01   1.8183527e-01   8.7314405e-02   1.3178359e-01  -2.4148489e-01  -4.1281744e-01  -3.5020620e-03   1.7031351e-01  -9.8902976e-02
   5.8029051e-03  -1.6201962e-02  -3.9058402e-03   2.8472497e-02   3.9075434e-02  -7.3969979e-03   3.5584130e-03   7.5487159e-02   5.8073810e-02  -5.2951568e-02  -7.0372179e-02  -3.1961686e-02   6.5102741e-02  -2.1843221e-01  -9.6189424e-02   2.7926448e-01  -1.9833698e-01   8.2401102e-02   6.0336265e-02  -1.0471837e-01   1.3522367e-01   3.9908962e-01  -7.5276811e-02   5.4987945e-02   9.4650262e-02  -3.3586820e-01
   1.2331667e-02  -4.1595211e-04   2.0092601e-02   2.4628965e-03  -4.0575450e-03   4.0836549e-02   1.7905881e-02  -1.8983862e-02  -5.6184457e-03  -4.1222855e-02  -2.7852269e-02   3.7458140e-02  -1.1404823e-01  -1.4732840e-01   5.3966409e-02  -2.3879434e-02   7.4801490e-02   3.4563062e-03  -2.1080045e-01  -2.0573369e-01  -4.4351278e-01  -2.3359986e-01   2.4166839e-01   1.5888137e-01   1.8533855e-01   1.8389233e-01
   6.8980562e-03   1.2824148e-02   1.0386773e-03   1.1230325e-02   1.3273880e-02   2.5146740e-02  -6.7557466e-03  -2.4411708e-02  -1.0268544e-02  -3.2700083e-02  -1.5893001e-02   2.8223582e-02  -5.5450731e-02   5.4674081e-02   7.4796627e-02  -6.0070584e-02  -1.3659965e-02   3.5978061e-02   1.8840810e-02   1.7902411e-02  -1.1616675e-01  -5.6270578e-02   9.9639967e-02   1.2955636e-01   4.4659541e-02   1.0190158e-01
   8.4194942e-03  -5.7667217e-03   8.2756270e-03   1.7724219e-02   2.1861345e-02  -1.3754713e-02  -4.0184345e-02   9.6424127e-03  -5.4362780e-03  -1.7378772e-02   9.7340756e-02  -1.0303563e-01   1.4371274e-02   1.0378246e-01  -1.6790268e-01  -1.3035852e-01   5.0963421e-02   5.2914209e-02  -2.8067001e-02  -8.4328158e-02   8.6424261e-02  -2.3197943e-01  -1.3071091e-02  -1.8540266e-01  -2.8642023e-01   1.2064313e-01
  -4.2186388e-03   5.5449311e-03  -2.3942955e-03   9.3012394e-03  -2.0412518e-02  -2.9273408e-02   1.3091773e-02  -2.4607299e-02  -2.9433968e-02  -3.1849572e-02   1.3477782e-01  -8.8223896e-02  -1.3903899e-01  -1.0237642e-01  -1.0722673e-02   5.5790826e-02  -3.7263451e-02   1.3473149e-02  -4.4407449e-02  -9.9321344e-02  -2.5090384e-02  -2.7714768e-01  -8.8794571e-02   1.5829465e-01  -2.0602274e-01  -8.7239624e-02
  -1.6505195e-02   3.9341243e-02  -1.7426358e-03   7.9592218e-03   3.4335782e-02  -7.8285463e-03   3.7373123e-03   1.2365228e-01   2.6301824e-02   2.1537931e-02   2.3457870e-02   1.8980763e-02  -5.2395103e-03  -1.2375154e-01  -3.7833060e-02   5.0929505e-02   2.0570684e-01  -9.6224620e-02  -1.8139342e-01  -6.9437970e-02  -2.4376969e-01   7.0811359e-02   5.5204055e-02   5.7576135e-02   7.6792913e-02  -8.4927272e-01
  -1.4010946e-02  -1.6108116e-03   1.0428908e-02  -7.3057825e-03   1.6831140e-02  -7.1715429e-03   1.5895458e-02  -1.9214598e-02   2.5286063e-02   3.5556874e-02  -1.2700555e-02  -1.3489672e-01   1.2860096e-01  -1.8282592e-02  -5.5604580e-02  -3.7476608e-02   1.8049912e-01  -6.5286993e-03  -2.6358834e-01  -8.7622194e-02   8.1799454e-02  -1.3549185e-01  -1.1737650e-01   4.5594718e-02   1.5528180e-01   7.2468215e-02
   1.0080988e-02   1.9597778e-02   7.4312384e-03   2.6489928e-02   2.8401429e-02   1.2348830e-03  -6.9190304e-02   4.2855051e-02  -1.2611093e-04   6.8057051e-03  -7.6447311e-03   6.5603732e-02   3.4481760e-02   6.8618465e-02   1.2629691e-01   1.0309690e-01  -1.2429146e-02   1.0221460e-01   2.4616594e-03  -1.0857564e-01  -1.1364058e-01  -1.7279657e-01  -5.0906634e-02  -2.0453928e-01  -1.1084709e-01  -1.4287272e-01
   3.1846859e-03  -9.5919172e-03   5.4163073e-03  -1.9556967e-02   1.7361221e-03  -2.0077424e-02   2.7060839e-02   8.5202845e-02  -1.7683010e-02  -3.8614284e-03  -2.2645513e-02   1.7541258e-04  -2.9361043e-02   1.6256577e-01  -9.1065129e-02  -7.4023569e-02   4.6255912e-02   1.4108592e-01  -1.0715092e-01   4.5123234e-01   2.0385707e-01  -6.7987507e-02   1.0445809e-01   3.7724186e-01  -1.4212594e-01   5.7257145e-02
  -1.3841679e-03  -4.7803160e-04  -2.1854524e-02  -1.6598882e-02  -3.3023431e-02   1.9187027e-03  -7.4803391e-02   3.4707801e-02  -8.2736715e-02   5.4394834e-02  -1.2175389e-02   2.2251875e-02   1.4822076e-01   5.6770719e-02   9.2638737e-03  -1.7539624e-01   2.0448303e-01  -2.8577932e-01   2.4672462e-01   7.9834015e-02   2.3644163e-01  -3.3645905e-01  -4.9703537e-01  -9.1037418e-02   1.6477780e-01  -5.6997405e-02
   4.8533021e-03  -1.6833215e-02  -7.1782048e-03   3.0713810e-02   3.5749054e-02  -1.3344197e-03   2.5714735e-03   7.1956022e-02   5.6048389e-02  -5.8148633e-02  -9.8420632e-02  -2.9977733e-02   7.7269125e-02  -2.8417043e-01  -1.3224449e-02   3.0137467e-01  -1.6691281e-01   4.7103756e-02   8.3880215e-02  -1.4151896e-01   5.2604023e-02   3.4258225e-01  -1.5840032e-01  -7.1433659e-02   8.7420189e-02  -2.5553017e-01
   1.2170890e-02  -2.3850929e-03   1.7023994e-02  -3.8540630e-03  -1.5853794e-02   3.3915436e-02   3.4658264e-03  -1.3448682e-02   1.3847867e-02  -5.1736309e-02  -9.5299899e-03   1.7580691e-02  -9.6280356e-02  -1.0627378e-01   2.3290062e-02  -7.9277559e-02   9.3630369e-02  -1.4979734e-02  -2.0158124e-01  -9.3264356e-02  -3.6791272e-01  -1.8989919e-01   1.3097395e-01   1.6397567e-01   9.7487365e-02   9.7825699e-02
   6.7229018e-03   1.2145089e-02   2.9899397e-03   9.2160551e-03   5.3332704e-03   2.3959081e-02   2.9621101e-05  -1.1817265e-02  -1.0730943e-02  -2.2841037e-02  -1.7352654e-02  -1.2951150e-03  -5.2438555e-02   2.6316978e-02   8.8249407e-02  -5.2087148e-02   1.1937801e-02   7.2575234e-02   5.6443015e-02   5.9335643e-02  -9.7640113e-02  -2.7203032e-02   1.2966898e-01   7.9404602e-02   2.0759861e-02   1.0434997e-01
   8.9742614e-03  -9.1525652e-03   1.2459305e-02   1.7124199e-02   2.9412694e-02  -1.2239471e-02  -4.2383427e-02  -5.4679421e-03  -1.9645684e-02  -2.5595930e-02   9.3801112e-02  -6.2516328e-02   4.4224251e-02   1.5569788e-01  -1.9277304e-01  -1.6472606e-01   4.6390889e-02   4.6292087e-02  -2.1688788e-02  -9.9435683e-02   1.1886724e-01  -2.7445485e-01   3.5210144e-02  -1.8695183e-01  -2.5322676e-01   8.0353994e-02
  -4.9633159e-03   6.5922474e-03  -3.5464959e-03   4.6226949e-03  -2.3588008e-02  -2.6344702e-02   9.3669880e-03  -2.2850210e-02  -3.3362983e-02  -4.5350668e-02   1.1711356e-01  -6.8209748e-02  -1.2458370e-01  -8.6409910e-02   5.3681984e-03   3.8982976e-02  -8.5322160e-03   9.1608028e-03  -6.1059835e-02  -1.0337516e-01   1.8969288e-02  -2.4583921e-01  -7.8631132e-02   1.4114823e-01  -1.3408381e-01  -1.3531830e-01
  -1.8480394e-02   3.7191381e-02  -2.2985435e-03   1.1031235e-02   3.3196000e-02  -1.6741894e-02  -1.0051155e-03   1.3695199e-01   4.8640190e-02   3.8907364e-02   5.4338243e-02   5.2832812e-03  -5.0359368e-02  -1.3566203e-01  -5.2956907e-02   5.0556190e-02   1.7888685e-01  -1.2651167e-01  -9.4497816e-02  -2.1251142e-02  -2.4321772e-01   1.0858898e-01   9.5387466e-04  -6.0556405e-03   2.7752564e-02  -9.4433980e-01
  -1.5336163e-02  -1.0147432e-03   1.1597153e-02  -3.4500678e-03   1.6026314e-02  -5.4022049e-03   9.1533823e-03  -3.2970398e-02   2.5317230e-02   5.2697224e-02  -2.9097541e-02  -1.6736012e-01   1.1246719e-01  -2.2815883e-02  -6.2451693e-02  -6.6490603e-02   1.8209795e-01   9.8449930e-03  -2.1108868e-01  -9.2262484e-02   1.1805875e-01  -2.4091394e-01  -1.1167432e-01  -1.6991064e-02   1.4905118e-01   1.2807898e-01
   1.2855798e-02   1.8033797e-02   6.8824318e-03   2.4258918e-02   2.4924907e-02   3.8090663e-03  -6.9842722e-02   4.0878208e-02  -5.1274278e-04   6.6580760e-03  -9.6048736e-03   5.9648240e-02   2.9033423e-02   6.4506663e-02   1.0209018e-01   9.9430019e-02  -7.6814926e-03   1.3994099e-01   3.1767478e-04  -7.7385839e-02  -1.4800042e-01  -1.6424322e-01  -7.9535663e-02  -1.6038903e-01  -3.7696422e-02  -1.0097182e-01
   5.6490157e-03  -4.4301672e-03   3.0827049e-03  -2.4084837e-02  -1.6914928e-03  -2.0017665e-02   3.2362041e-02   8.9340714e-02  -2.8218238e-02   4.7491521e-03  -3.3508364e-02  -1.0734105e-02  -2.7253854e-02   2.1059845e-01  -9.9767787e-02  -5.3086767e-02   9.3956862e-02   1.5455778e-01  -9.3582913e-02   5.1423348e-01   1.7935171e-01  -6.0300416e-02   1.6546764e-01   5.2507219e-01  -5.9041449e-02  -1.6533126e-02
   1.0738276e-03   1.4397147e-03  -2.3317628e-02  -1.0747671e-02  -2.0230876e-02  -4.8705942e-04  -6.5394744e-02   4.5441001e-02  -9.3752452e-02   8.7558928e-02  -3.5760464e-02   3.9446787e-02   1.6492849e-01   6.7711680e-02  -8.5221904e-03  -1.1432590e-01   2.0469662e-01  -2.7038024e-01   2.8266034e-01   2.8515159e-02   2.8498200e-01  -3.6791798e-01  -5.0669090e-01  -1.5684591e-01   1.4979423e-01   1.0224837e-02
   3.3313254e-03  -1.5526476e-02  -1.1254497e-02   3.2044144e-02   2.8860510e-02   8.6004482e-03  -2.0663126e-03   5.6104300e-02   4.6769796e-02  -5.9007742e-02  -1.1962550e-01  -2.2552156e-02   8.1694386e-02  -3.3751537e-01   8.7890649e-02   3.0201969e-01  -1.2795306e-01   1.0418694e-02   1.1365699e-01  -1.8474656e-01  -4.1510424e-02   2.3933175e-01  -2.1466444e-01  -1.9561830e-01   8.4012129e-02  -1.5291945e-01
   1.0779936e-02  -3.1878413e-03   1.4109676e-02  -9.3297270e-03  -2.4452685e-02   2.3962749e-02  -6.9477342e-03  -1.2005400e-02   3.5696277e-02  -6.4468549e-02   1.9231376e-02  -7.9246994e-03  -8.7068198e-02  -4.6552698e-02  -9.2464138e-03  -1.1600015e-01   8.9124639e-02  -8.1504113e-03  -1.9235048e-01   3.1482287e-02  -2.5828823e-01  -1.0416853e-01   3.1956119e-02   1.8165432e-01  -1.6131536e-04  -7.3818889e-04
   5.0626756e-03   9.9773571e-03   5.8099054e-03   6.4357339e-03  -3.3548904e-03   2.0280360e-02   8.3801604e-03   1.8235328e-03  -1.1383824e-02  -4.9194688e-03  -1.8919500e-02  -4.0244574e-02  -4.3675893e-02  -1.0964330e-02   9.3349220e-02  -4.1080935e-02   3.8869328e-02   9.9375763e-02   1.0242579e-01   9.7359191e-02  -5.8820025e-02  -1.2033001e-02   1.6692367e-01   5.6297709e-03  -1.9028970e-02   8.5065610e-02
   9.6453191e-03  -1.1688715e-02   1.6442257e-02   1.5954528e-02   3.5572992e-02  -9.6990904e-03  -4.0820820e-02  -2.3653973e-02  -3.8455716e-02  -3.6668608e-02   8.6358137e-02  -2.1477128e-02   7.6537358e-02   1.9593971e-01  -2.0767599e-01  -1.8879990e-01   3.8280086e-02   4.4337668e-02  -3.3424705e-02  -1.1644778e-01   1.4311626e-01  -3.0871563e-01   9.8425995e-02  -1.6837527e-01  -1.9792018e-01   4.7119935e-02
  -5.2084250e-03   6.9493176e-03  -5.2351884e-03   6.0041518e-04  -2.4051439e-02  -2.2636788e-02   4.7350414e-03  -1.4323688e-02  -3.5872580e-02  -5.1446100e-02   9.3654815e-02  -5.1592238e-02  -9.9254307e-02  -6.7477962e-02   1.3461114e-02   1.3587785e-02   2.6866944e-02  -3.2659771e-03  -6.2452046e-02  -9.7325067e-02   6.0532297e-02  -1.8755610e-01  -7.2040796e-02   7.5171870e-02  -4.4635491e-02  -1.6343579e-01
  -2.0248838e-02   3.3622321e-02  -2.5802428e-03   1.4236038e-02   3.4479893e-02  -2.7183742e-02  -8.1937176e-03   1.5127101e-01   7.2085882e-02   6.1348411e-02   8.9079770e-02  -1.1954277e-02  -9.2166718e-02  -1.3874859e-01  -7.7914754e-02   3.3774906e-02   1.5404196e-01  -1.5898831e-01   2.0317548e-02   4.1303208e-02  -2.3413630e-01   1.5591629e-01  -3.8294428e-02  -1.0052779e-01  -2.6512545e-02  -1.0200872e+00
  -1.5919539e-02  -1.2334921e-03   1.1243675e-02  -1.5450193e-03   1.1896739e-02  -4.5860458e-03   5.2289394e-03  -3.9914644e-02   2.1900882e-02   6.7129480e-02  -3.6599291e-02  -1.8466953e-01   9.6465410e-02  -3.9575106e-02  -5.8701111e-02  -9.4903478e-02   1.7795823e-01   9.0967025e-04  -1.4904335e-01  -7.3208447e-02   1.3485839e-01  -3.2983398e-01  -7.8187740e-02  -7.1953153e-02   1.1614958e-01   1.6167587e-01
   1.6495885e-02   1.6780399e-02   5.6773698e-03   2.1795219e-02   2.1676710e-02   6.5822561e-03  -6.9545055e-02   3.9954549e-02   2.3090903e-03   1.0162236e-02  -1.4157775e-02   4.8953126e-02   1.6976203e-02   6.4744107e-02   6.6168138e-02   8.9245637e-02  -9.8502141e-03   1.9821173e-01   1.5821472e-02  -2.7988077e-02  -1.7267506e-01  -1.4772011e-01  -1.2132265e-01  -1.0861389e-01   6.2280246e-02  -6.1178696e-02
   7.4870753e-03   2.1698964e-03   4.9940040e-04  -2.8369303e-02  -5.7373297e-03  -1.7939471e-02   3.6469548e-02   8.8839321e-02  -3.9174770e-02   1.6181468e-02  -4.2996299e-02  -1.8776053e-02  -2.8699313e-02   2.6293159e-01  -1.0223033e-01  -3.3761798e-02   1.4974059e-01   1.6176863e-01  -7.4648224e-02   5.5616824e-01   1.3729123e-01  -6.0868268e-02   2.3816015e-01   6.7314439e-01   3.9848500e-02  -8.2985705e-02
   3.1508869e-03   3.8763672e-03  -2.2853552e-02  -1.0278942e-03  -1.3648273e-03  -1.6086078e-04  -4.3984018e-02   5.0319520e-02  -9.8555745e-02   1.1130013e-01  -6.4720664e-02   4.9042680e-02   1.6579357e-01   5.5329821e-02  -5.4439888e-03  -1.4073074e-02   1.8699952e-01  -2.0447881e-01   2.8332277e-01  -6.4422137e-02   2.5250618e-01  -3.4104262e-01  -4.3216184e-01  -2.0557931e-01   1.3788891e-01   1.0164641e-01
   1.3416883e-03  -1.2276760e-02  -1.5788258e-02   3.2029541e-02   1.8626623e-02   2.1734278e-02  -1.1419515e-02   2.7524416e-02   3.0273708e-02  -5.6082091e-02  -1.2896125e-01  -9.3299056e-03   7.7403587e-02  -3.7141251e-01   1.9771522e-01   2.7660460e-01  -8.5548730e-02  -2.6258877e-02   1.4699542e-01  -2.3212411e-01  -1.3688613e-01   9.1772068e-02  -2.3752223e-01  -3.0505372e-01   8.4618072e-02  -3.7385436e-02
   7.9417387e-03  -2.9559348e-03   1.2199332e-02  -1.3524010e-02  -3.0436919e-02   1.1940971e-02  -1.2543759e-02  -1.7001836e-02   5.9183840e-02  -8.2244851e-02   5.9562970e-02  -3.5600577e-02  -9.1010004e-02   2.4178456e-02  -4.0057088e-02  -1.4107030e-01   6.1033500e-02   2.0752973e-02  -1.8776867e-01   1.5219374e-01  -1.3494496e-01   1.5150034e-02  -3.5527542e-02   2.1227935e-01  -9.3816346e-02  -1.0508925e-01
   1.9576824e-03   6.3880047e-03   9.1622290e-03   3.0836001e-03  -1.2292689e-02   1.4247509e-02   1.7455597e-02   1.5071986e-02  -1.3138373e-02   1.9161524e-02  -1.9154961e-02  -8.3814414e-02  -2.8768192e-02  -5.6126098e-02   9.1912777e-02  -2.7122716e-02   6.5790547e-02   1.0889414e-01   1.5165645e-01   1.2614494e-01  -5.8638437e-03  -1.3094486e-02   2.1392812e-01  -8.5278660e-02  -7.5615487e-02   4.4475696e-02
   1.0246645e-02  -1.2779781e-02   1.9860975e-02   1.4256262e-02   3.9222739e-02  -6.2861244e-03  -3.5370973e-02  -4.3403839e-02  -6.0832286e-02  -5.0484569e-02   7.5433356e-02   1.6859974e-02   1.0755626e-01   2.1946309e-01  -2.0828872e-01  -1.9656728e-01   2.7774340e-02   4.8112786e-02  -6.7034351e-02  -1.3676119e-01   1.5702704e-01  -3.3468150e-01   1.6680215e-01  -1.2293322e-01  -1.2101387e-01   1.7871559e-02
  -4.8951828e-03   6.3897543e-03  -7.2854175e-03  -2.1633526e-03  -2.1363221e-02  -1.8450502e-02  -4.1526022e-04   4.8837815e-04  -3.6122467e-02  -4.8296007e-02   6.6818585e-02  -3.9486930e-02  -6.5207456e-02  -4.5543674e-02   1.1533425e-02  -2.0149486e-02   6.6500909e-02  -2.4429442e-02  -4.3923474e-02  -7.9973852e-02   9.3142112e-02  -1.0775354e-01  -6.5348582e-02  -4.1101106e-02   4.9568580e-02  -1.6594697e-01
  -2.1702116e-02   2.9039231e-02  -2.7186804e-03   1.7109367e-02   3.7925535e-02  -3.8306621e-02  -1.6638021e-02   1.6625293e-01   9.4913110e-02   8.7785545e-02   1.2502366e-01  -3.0963926e-02  -1.2784251e-01  -1.3508248e-01  -1.0870597e-01   2.0864337e-03   1.3502851e-01  -1.9200585e-01   1.5502600e-01   1.1680207e-01  -2.1953682e-01   2.1286373e-01  -5.6719627e-02  -2.2285617e-01  -7.8561195e-02  -1.0712890e+00
  -1.5229931e-02  -2.1949105e-03   9.0166895e-03  -2.2087324e-03   4.5359969e-03  -5.0649006e-03   5.4532257e-03  -3.6254280e-02   1.4842297e-02   7.4880904e-02  -3.1195414e-02  -1.8018335e-01   8.2029995e-02  -6.7583151e-02  -4.0315606e-02  -1.1790830e-01   1.7125977e-01  -3.8154861e-02  -8.7424942e-02  -2.9334039e-02   1.1861391e-01  -3.7719877e-01  -1.1750506e-02  -1.0366750e-01   5.5966078e-02   1.6360069e-01
   2.0650552e-02   1.5902155e-02   3.8106525e-03   1.9248969e-02   1.9246789e-02   9.2546190e-03  -6.8615638e-02   4.0084555e-02   8.8602362e-03   1.7372947e-02  -2.1877256e-02   3.3418802e-02  -2.5349232e-04   7.0093135e-02   2.0028390e-02   7.2897268e-02  -1.8125212e-02   2.7442687e-01   4.8039318e-02   3.5295229e-02  -1.8537533e-01  -1.2540024e-01  -1.7514801e-01  -5.8359387e-02   1.8219885e-01  -2.6898893e-02
   8.5091912e-03   9.5530003e-03  -2.2712306e-03  -3.2573150e-02  -1.0547072e-02  -1.4149088e-02   3.7779767e-02   8.3384399e-02  -4.9997583e-02   3.0430514e-02  -4.8908069e-02  -2.1790882e-02  -3.2295925e-02   3.1668609e-01  -1.0017817e-01  -2.3455590e-02   2.0989458e-01   1.5641975e-01  -4.9520987e-02   5.7697184e-01   8.6984699e-02  -7.7428538e-02   3.1202634e-01   8.0883066e-01   1.4731975e-01  -1.4154822e-01
