   1.0992811e-02  -1.4175368e-03  -9.3470828e-02  -4.2579191e-01   3.0587849e-02  -1.2014561e-01   1.3114346e-01  -4.7179771e-02   5.2687149e-01  -1.5910253e-01   1.6288486e-01  -6.6740767e-01   7.4443891e-01  -9.2602033e-01   2.2689553e-01  -2.0839444e-01  -3.8754358e-01  -5.3531185e-02  -1.1567573e-01   5.6190425e-01  -7.8021951e-02   9.1388642e-01   1.3808640e-01   2.9920664e-01  -2.4382376e-01   1.0791129e-01   5.6628014e-01
  -2.5983721e-02   6.5251282e-02   1.3622920e-01  -7.7538243e-03  -9.6625635e-03   8.6196998e-03   2.7739264e-01  -1.0615038e-01  -3.7548771e-01   6.2730526e-01   4.4648208e-01  -1.0957472e-01  -1.0191058e+00  -2.2421564e-02  -7.8383269e-01  -1.8894758e-01  -6.1751118e-01  -2.5569799e-01   1.8778039e-01   9.5042952e-02  -6.3912360e-01   1.9009907e+00   6.1905146e-02  -4.6331397e-01  -1.5230627e-01   1.6234427e-01  -8.2203913e-01
  -5.0527323e-03  -3.4217172e-03   6.1602821e-02  -1.2095281e-01  -8.3405516e-02  -3.3607650e-02  -1.3477433e-02  -1.9129398e-01  -7.7874499e-01  -1.7271347e-01  -5.4267668e-01   2.4230434e-01   9.4400459e-01   2.8517462e-01   1.3330712e-01   3.0115177e-01  -1.9778976e-01  -1.3992168e-01   4.3442489e-01   9.0874081e-01  -1.1289714e+00   6.8455801e-01  -1.8737199e-01  -8.8803036e-01   2.4253059e-01  -2.3820134e-02  -9.1406967e-01
  -6.6612882e-03   5.7089585e-02  -2.8915104e-02  -5.4167313e-02  -1.8385761e-01  -1.1024183e-01   7.3716595e-02   3.0819012e-02  -2.0792158e-02  -2.1452241e-01  -1.4807544e-01  -1.5600918e-01   4.4324341e-02   3.6663738e-01   1.5545825e-01  -2.3299708e-02  -2.6384910e-01   6.8461523e-01  -3.1409100e-01  -9.9070071e-01  -7.3827629e-01   6.0282660e-02  -4.1053360e-01   8.2323569e-02   7.7321027e-03  -2.3170339e-01  -8.2788005e-01
   2.2306685e-02   1.3409644e-02  -6.9157381e-02  -2.2052352e-01  -1.5272462e-01  -4.4787407e-02  -1.6302304e-01  -2.5661733e-01   9.1894347e-02  -7.2390709e-02   4.1539140e-01   6.3117747e-01   1.8538861e-01   3.4958843e-01   1.2034123e-01  -2.9224918e-01  -8.2398171e-01  -1.1624063e+00   2.2594336e-01  -7.8150887e-01  -2.3552445e-01  -4.2520972e-01  -7.7216536e-01   2.9051180e-01   3.4310341e-01  -5.8438832e-01   4.4597174e-01
   2.1111188e-02  -5.2668849e-02  -7.2537017e-03   1.0446962e-01   3.1082281e-02  -9.2556761e-03  -1.3143112e-01   4.2801874e-02  -1.3789902e-01  -3.3873810e-01  -1.1434134e-01   2.9491747e-01  -1.2820581e-01  -5.6550529e-01  -5.8792393e-01   8.7024645e-01   3.8969219e-01  -9.9151660e-01  -3.2300607e-01   6.2003933e-02  -1.8129520e-01   8.5510486e-01  -4.1211696e-01  -9.7663271e-01   2.3040400e-01  -8.4115386e-01   3.5962432e-01
  -6.8368828e-02  -8.7584557e-02   2.3881175e-01   9.0464458e-02  -1.7925978e-01   2.2968964e-01   3.4723971e-01   1.4822517e-01  -7.1392573e-02  -1.7860950e-01   1.1433760e+00   1.8805738e-01   4.9791942e-01   3.2016363e-01   5.2650547e-01  -1.5455529e-01   4.3258179e-01  -1.2364963e-01   2.6852626e-01  -4.3227691e-01   1.1134019e+00  -1.1397593e-01   9.6695124e-01  -5.9449843e-01  -5.4926245e-01  -5.6632667e-01   5.7765907e-01
   1.3251821e-02  -2.2814442e-01   6.8556736e-02  -8.4021787e-02   2.3046745e-01  -6.1920875e-02  -9.7849480e-02  -2.0090730e-01   1.2424252e-01   5.6776268e-01  -7.8904434e-02  -2.0707712e-01   8.0524165e-02  -2.9474158e-01  -6.0659547e-01  -9.6964305e-01   4.1830639e-01  -3.9232550e-01   1.1261739e+00  -1.0140136e+00  -1.3644845e+00  -6.1606209e-02   2.3444173e-01  -1.3029878e+00   6.0114846e-01  -1.2858913e-01   8.9322268e-01
  -1.7974889e-03   1.0134802e-01   2.5967767e-02   2.2956588e-02  -1.5439380e-01   1.6143927e-03  -8.5627614e-04   7.6974202e-02  -3.7017632e-01  -5.0440880e-01   2.6300323e-01  -3.4995548e-01   2.9002225e-01   2.4600628e-01  -1.9930803e-01  -2.9006904e-01   6.3956696e-02   4.2055759e-01  -3.1658402e-01  -6.7717960e-01  -1.0442927e+00  -1.3288820e-01   4.5566731e-01   1.4249507e+00  -1.1978394e+00   1.2299681e+00   4.7422095e-01
   8.7270380e-02  -1.1315467e-01   4.7046061e-02  -3.9438276e-02  -8.8788844e-02   3.6631419e-02  -1.1020865e-01   4.7902654e-01  -2.8428179e-01  -8.3056442e-01   8.1434389e-02  -6.9937307e-01  -2.8584255e-02   8.2910395e-03   1.6892336e-01   6.2116780e-01  -3.3595340e-01  -1.8814806e-01   3.5129186e-01   9.3665794e-01   6.7571640e-01  -5.4913964e-02  -1.4491372e+00   5.6847100e-01   2.2313744e-01  -8.6487804e-01   3.9782075e-01
   1.1233144e-02  -1.9339523e-03  -8.1249598e-02  -3.8849511e-01   2.7044198e-02  -1.1691170e-01   1.3783945e-01  -2.6583481e-02   4.9557446e-01  -1.2998847e-01   1.4169331e-01  -6.4951732e-01   6.4481761e-01  -8.2290327e-01   2.2395417e-01  -2.3649944e-01  -3.8216808e-01  -1.1940894e-02  -1.1043887e-01   4.8154335e-01  -9.4454257e-02   7.9122131e-01   7.9145038e-02   2.5159634e-01  -1.6959850e-01   1.2490477e-01   4.4431038e-01
  -2.4490632e-02   5.4839730e-02   1.2804453e-01  -1.4023754e-02  -3.2708969e-02   8.9565403e-03   2.4148534e-01  -8.1668763e-02  -3.6267793e-01   5.0960566e-01   3.7000300e-01  -1.4167466e-01  -8.7495216e-01  -2.6345926e-02  -6.4378306e-01  -2.2148143e-01  -4.8058573e-01  -1.8195294e-01   9.4031634e-02   1.4654423e-01  -5.5154876e-01   1.6092138e+00  -2.6938999e-02  -3.8868389e-01  -1.4154379e-01   1.2588510e-01  -7.3650819e-01
  -5.9809417e-03  -2.7587390e-03   5.9801054e-02  -1.0854275e-01  -8.5165392e-02  -1.8660420e-02   1.1215173e-03  -1.4770906e-01  -6.8105017e-01  -1.3812531e-01  -4.5714093e-01   1.7030051e-01   8.1732080e-01   2.8316608e-01   7.6148212e-02   1.9035881e-01  -2.1676007e-01  -1.2152984e-01   3.8588604e-01   6.5159995e-01  -9.4870732e-01   5.9579013e-01  -1.9505862e-01  -7.7837541e-01   1.7056345e-01   4.0539003e-03  -7.5606719e-01
   3.1485895e-03   9.8546232e-03  -1.5697688e-02  -4.1787208e-02  -3.9124125e-02  -3.5843780e-02  -6.6064914e-03  -3.1960431e-02   1.0568113e-02  -3.7467454e-02  -4.4853913e-03   6.4064066e-02   2.8839521e-02   8.8059304e-02   3.5156614e-02   1.1585790e-01  -1.7894144e-01  -1.8220387e-02  -3.6053906e-02  -2.0804428e-01  -2.3828763e-01  -1.0363879e-01  -8.2436867e-02  -1.3574690e-01   6.6916288e-02  -2.0586981e-01  -5.5008748e-02
   8.9822885e-03   1.0490353e-02  -3.2950845e-02  -5.8154052e-02  -6.5261147e-02  -3.4855865e-02  -5.8372158e-02  -4.9760376e-02   5.6643131e-02  -3.0468512e-02   9.9455077e-02   1.7741108e-01   7.0007888e-02   5.5143063e-02  -8.2109301e-03   6.3919930e-02  -1.8812680e-01  -1.9740846e-01   4.1600670e-02  -2.7679173e-01  -1.5657526e-01  -7.9659501e-02  -1.5656132e-01  -1.7449825e-02   1.4475821e-01  -1.3953060e-01  -5.6086199e-02
   6.2506516e-03  -1.5518586e-02   1.6677112e-05   1.1584943e-02  -1.0839625e-02  -7.6187974e-03  -6.7854621e-02   1.0021478e-03  -1.1576052e-02  -4.9078585e-02   7.2149036e-03   9.5004303e-02  -5.6774829e-02  -8.8361837e-02  -9.3804209e-02   1.6274200e-01   8.7400541e-02  -1.9063971e-01  -5.9667132e-02  -7.8975042e-02   2.1415815e-03   6.2591399e-02  -6.9891839e-02  -2.1954384e-01   9.3352426e-02  -7.7785271e-02   3.7768422e-02
  -5.4314110e-02  -7.7430209e-02   1.6691111e-01   6.0002203e-02  -1.0575117e-01   1.7652220e-01   2.8612854e-01   1.1048306e-01  -2.0957139e-02  -7.7606418e-02   7.6034154e-01   8.5441576e-02   3.2357212e-01   2.3953852e-01   3.7621025e-01  -6.9689876e-02   2.3215203e-01  -1.6000340e-01   1.0423561e-01  -6.9105001e-02   8.6892281e-01  -8.8248895e-02   5.5664876e-01  -4.3118760e-01  -1.6516568e-01  -5.2783283e-01   1.8605826e-01
  -8.0097885e-04  -1.3574752e-01   3.3909405e-02  -5.1613565e-02   1.6476493e-01  -4.0274295e-02  -8.3069317e-02  -1.1684803e-01   7.3291325e-02   4.1842206e-01  -2.1961387e-02  -1.0675544e-01   3.0669752e-02  -1.4346237e-01  -4.0127539e-01  -6.1618115e-01   2.2059790e-01  -1.5834469e-01   5.0295706e-01  -4.6504218e-01  -7.8753652e-01  -1.5842504e-01   2.7645207e-01  -7.5688051e-01   2.4526847e-01  -2.6616539e-02   5.8888323e-01
   2.1173853e-03   7.3067524e-02   4.9720545e-03   1.2986151e-02  -9.3954477e-02  -7.2973638e-03   9.8797492e-03   6.4605303e-02  -2.5695989e-01  -3.1056845e-01   4.1796561e-02  -3.1367234e-01   1.3622781e-01   1.3830176e-01  -2.8791789e-01  -2.3377685e-01   6.8636448e-02   3.1536444e-01  -2.8474933e-01  -3.0995619e-01  -7.8331474e-01  -1.4647627e-01   2.3077884e-01   9.4045628e-01  -7.0883589e-01   7.7014182e-01   1.9753036e-01
   6.1478876e-02  -5.7319523e-02   3.6234649e-02  -3.3845697e-02  -6.6755994e-02   6.0365636e-02  -9.0406935e-02   3.7608258e-01  -2.1126182e-01  -6.1078649e-01   1.1924406e-01  -4.6515795e-01  -4.6323201e-02   2.7167480e-02   1.7387440e-01   5.1792854e-01  -2.4591474e-01  -4.5542102e-02   1.8375656e-01   6.2226144e-01   6.6001154e-01  -8.7000960e-02  -8.9968805e-01   4.1672451e-01   3.2137354e-02  -5.6081342e-01   3.3541084e-01
   1.1459143e-02  -2.9371226e-03  -6.8995816e-02  -3.5061971e-01   2.4754527e-02  -1.1270257e-01   1.4586526e-01  -6.5144946e-03   4.6268732e-01  -1.0715769e-01   1.1815979e-01  -6.3013314e-01   5.4540408e-01  -7.3352865e-01   2.1204449e-01  -2.5359338e-01  -3.6426627e-01   1.9593117e-02  -1.1144083e-01   4.0756379e-01  -1.0436983e-01   6.8269228e-01   3.1365600e-02   1.9354588e-01  -1.0952292e-01   1.2631846e-01   3.2969309e-01
  -2.3157598e-02   4.6729828e-02   1.1998927e-01  -2.1884323e-02  -5.5823609e-02   8.8853047e-03   2.0980278e-01  -5.8157048e-02  -3.4591911e-01   4.0088776e-01   2.9959105e-01  -1.7084996e-01  -7.4380409e-01  -2.2167275e-02  -5.0408718e-01  -2.5408228e-01  -3.5954622e-01  -1.0912448e-01   5.5799863e-03   1.6770171e-01  -4.7925107e-01   1.3226347e+00  -1.1609276e-01  -3.1442910e-01  -1.2612753e-01   8.3379473e-02  -6.3846725e-01
  -5.8584180e-03  -3.0895577e-03   5.7924484e-02  -9.6459119e-02  -8.4297868e-02  -4.6820198e-03   1.2480849e-02  -1.1250752e-01  -5.9003335e-01  -1.0140433e-01  -3.6919251e-01   1.0828701e-01   6.9292343e-01   2.7331678e-01   2.1226163e-02   1.0494581e-01  -2.2796942e-01  -1.1859751e-01   3.4445820e-01   4.4730507e-01  -7.6406117e-01   5.1678122e-01  -1.8450650e-01  -6.7703610e-01   1.1057281e-01   3.5821063e-02  -5.9394679e-01
   6.9011732e-03  -1.6268710e-02  -7.4639350e-03  -2.6568442e-02   3.3922869e-02   6.5691265e-03  -5.5480563e-02  -5.1624918e-02   1.5073827e-02   3.2910823e-02   4.2827350e-02   1.6120529e-01   8.7249077e-02  -5.8003492e-02  -1.2232330e-02   1.6616996e-01  -8.4325777e-02  -3.4957688e-01   9.3602345e-02   2.0765741e-01   4.2792772e-02  -1.8730733e-01   8.0831739e-02  -2.0075640e-01   5.7299119e-02  -1.0636096e-01   3.1170968e-01
  -1.1435258e-04   5.6933171e-03  -7.6514212e-03   2.8074505e-02  -3.4874871e-03  -2.0450850e-02   5.9172793e-03   5.7745965e-02   3.4393967e-02   5.3999144e-03  -5.5676968e-02  -8.8753454e-02  -2.3269015e-03  -1.0571217e-01  -5.7789057e-02   2.0506781e-01   1.5618746e-01   3.0245305e-01  -5.9824953e-02   5.5231625e-02  -7.9616519e-02   1.0615037e-01   2.0569625e-01  -1.5476959e-01   2.9466711e-02   1.2923101e-01  -2.4179231e-01
  -1.5484363e-03   8.1022481e-03   1.0162257e-03  -3.0280229e-02  -3.0998505e-02  -6.7081948e-03  -2.4919717e-02  -2.4035367e-02   4.5763997e-02   9.9804151e-02   6.0265504e-02  -3.9061243e-03  -7.1532772e-04   1.6432013e-01   1.5179610e-01  -2.2023564e-01  -8.2802182e-02   2.3157178e-01   8.5916154e-02  -1.2651437e-01   7.5945760e-02  -3.2887080e-01   7.8576053e-02   2.1721905e-01  -1.1859777e-02   2.8902322e-01  -1.0876386e-01
  -4.1430764e-02  -6.6479199e-02   1.0928749e-01   3.6707623e-02  -4.5991015e-02   1.2865883e-01   2.2682977e-01   7.8431191e-02   1.4645349e-02  -2.1477770e-03   4.4434623e-01   2.0403340e-02   1.8361045e-01   1.5500828e-01   2.6652941e-01  -5.9395206e-03   8.2724898e-02  -1.7777438e-01  -9.5875426e-03   1.9132850e-01   6.4104913e-01  -3.5441606e-02   2.3003779e-01  -2.9949059e-01   1.1156197e-01  -4.7459179e-01  -9.7426702e-02
  -1.0516015e-02  -6.5654756e-02   7.5132213e-03  -2.7856575e-02   1.1061386e-01  -2.8269912e-02  -6.3572072e-02  -5.6359666e-02   3.0405741e-02   2.8799239e-01   1.1262725e-02  -2.5635934e-02  -1.5995741e-03  -3.4881526e-02  -2.3390998e-01  -3.1670873e-01   6.3203268e-02   1.5958172e-02   4.7730988e-02  -4.9148718e-02  -3.4222419e-01  -2.0808399e-01   2.8676808e-01  -3.3961379e-01   1.7455003e-02   7.2577172e-02   3.3232346e-01
   5.3889709e-03   4.9613704e-02  -1.0456343e-02   7.1669744e-03  -4.3395124e-02  -1.5910601e-02   1.7918057e-02   5.6449288e-02  -1.6632690e-01  -1.5589463e-01  -1.1749465e-01  -2.5867571e-01   2.0640959e-02   4.4796199e-02  -3.4156554e-01  -1.8705810e-01   7.9786568e-02   2.3009394e-01  -2.2900436e-01  -3.9435301e-02  -5.5462443e-01  -1.2444041e-01   6.8104013e-02   5.2963949e-01  -3.4081095e-01   4.0919772e-01   1.7415559e-02
   4.0719992e-02  -1.6265468e-02   2.9338298e-02  -2.9202304e-02  -4.8569372e-02   7.3570145e-02  -6.8430919e-02   2.7981142e-01  -1.4338171e-01  -4.1633513e-01   1.4093520e-01  -2.6694650e-01  -6.0382545e-02   3.8489811e-02   1.6109746e-01   4.0922749e-01  -1.7314576e-01   4.4618586e-02   7.6589926e-02   3.6505333e-01   5.8079226e-01  -9.5071930e-02  -4.5291366e-01   2.5260289e-01  -8.4508993e-02  -3.1901124e-01   2.4177818e-01
   1.1637331e-02  -4.3602123e-03  -5.6892635e-02  -3.1384778e-01   2.3157098e-02  -1.0752003e-01   1.5437964e-01   1.1623967e-02   4.2919960e-01  -8.9809639e-02   9.4894303e-02  -6.0765993e-01   4.4822069e-01  -6.5432915e-01   1.9490650e-01  -2.6434650e-01  -3.3885558e-01   3.9712226e-02  -1.1690453e-01   3.3750149e-01  -1.0664086e-01   5.8333463e-01  -6.5434317e-03   1.3077427e-01  -6.3350650e-02   1.1457276e-01   2.2527643e-01
  -2.1658011e-02   4.0134269e-02   1.1207298e-01  -3.0775741e-02  -7.6523323e-02   9.2006986e-03   1.8131407e-01  -3.7442194e-02  -3.2556875e-01   3.0479872e-01   2.3827604e-01  -1.9233820e-01  -6.2710568e-01  -1.5006083e-02  -3.7084119e-01  -2.8061884e-01  -2.5592868e-01  -4.7782592e-02  -7.1540791e-02   1.7081124e-01  -4.1486908e-01   1.0461682e+00  -1.9969816e-01  -2.4719963e-01  -1.0718995e-01   3.4763432e-02  -5.1985817e-01
  -4.8658293e-03  -4.0711981e-03   5.5792303e-02  -8.4607682e-02  -8.2403882e-02   7.3206645e-03   2.1666908e-02  -8.4395300e-02  -5.0746831e-01  -6.5930631e-02  -2.8388853e-01   5.3842172e-02   5.7408035e-01   2.5833457e-01  -2.9425536e-02   4.3346177e-02  -2.3093731e-01  -1.1987598e-01   3.0742133e-01   2.8796450e-01  -5.8393165e-01   4.5060783e-01  -1.6248719e-01  -5.8113623e-01   6.0710138e-02   7.1167255e-02  -4.4198164e-01
   6.4845555e-03  -2.6443539e-02  -2.8382660e-03  -1.2518613e-02   5.6384193e-02   2.4560075e-02  -7.6808284e-02  -4.4645025e-02   3.5053403e-03   3.2890912e-02   2.7414237e-02   1.7266579e-01   1.7569963e-01  -1.0345063e-01  -6.4965777e-03   1.5622004e-01   1.7755773e-03  -4.1705543e-01   1.1953631e-01   3.5809627e-01   1.5827989e-01  -2.1919695e-01   1.3083564e-01  -1.7471376e-01   1.9869185e-02   1.3864017e-02   4.0156295e-01
  -5.0741894e-03   6.9459093e-04   6.7132877e-03   5.7507586e-02   3.2771019e-02  -6.9890555e-03   3.6038280e-02   9.2610643e-02   2.2574701e-02   2.8161882e-02  -1.0046208e-01  -2.0455720e-01  -3.4467891e-02  -1.6946335e-01  -5.8959063e-02   2.0691873e-01   2.8330371e-01   4.5807521e-01  -1.0379029e-01   2.3460483e-01  -1.7732356e-02   1.7823270e-01   3.4976084e-01  -1.7387521e-01  -2.8527247e-02   2.5180164e-01  -2.3321733e-01
  -4.2976429e-03   1.9608302e-02  -8.8027299e-04  -3.5831933e-02  -3.5253636e-02  -5.1182126e-03  -8.1725434e-05  -3.3835852e-02   5.3742192e-02   1.4566639e-01   6.7288838e-02  -3.2190553e-02   3.1046727e-02   2.5096950e-01   2.1831450e-01  -3.5318068e-01  -1.4397594e-01   3.7952054e-01   1.4062484e-01  -1.1542359e-01   7.7537382e-02  -4.3116491e-01   1.0959588e-01   3.9352318e-01  -7.1542202e-02   3.7854182e-01  -1.4166596e-01
  -2.9934343e-02  -5.5339632e-02   6.5585299e-02   1.9502042e-02  -6.5962966e-04   8.7308257e-02   1.7103782e-01   5.2102735e-02   3.7511969e-02   4.8577327e-02   1.9521614e-01  -1.4560031e-02   7.5452591e-02   7.3402724e-02   1.9359699e-01   3.8696093e-02  -1.9789882e-02  -1.7958472e-01  -7.9577890e-02   3.5611500e-01   4.3516507e-01   2.9995804e-02  -1.4797403e-02  -1.9979377e-01   2.9237291e-01  -4.1062605e-01  -2.8190289e-01
  -1.6372806e-02  -1.5699771e-02  -1.1656427e-02  -1.1711590e-02   6.7463192e-02  -2.3585396e-02  -4.1429008e-02  -1.5000791e-02  -4.1504129e-03   1.7636910e-01   2.4964396e-02   3.6428203e-02  -1.9777837e-02   3.6884516e-02  -1.0244809e-01  -7.2875798e-02  -5.4727651e-02   1.3544022e-01  -2.5834282e-01   2.4287199e-01  -1.4879119e-02  -2.1837614e-01   2.7080010e-01  -3.2101308e-02  -1.1224525e-01   1.5818109e-01   1.2062829e-01
   7.9556035e-03   3.0856666e-02  -2.0786936e-02   4.2950237e-03  -3.3384207e-03  -2.3794994e-02   2.3918951e-02   5.1695174e-02  -9.6368456e-02  -3.9552718e-02  -2.2016483e-01  -1.9204742e-01  -6.0562549e-02  -3.1145388e-02  -3.6447754e-01  -1.5024171e-01   9.4273547e-02   1.6459641e-01  -1.5770470e-01   1.4091341e-01  -3.5829876e-01  -7.9313170e-02  -4.0610956e-02   1.9612583e-01  -7.7965985e-02   1.3786324e-01  -8.2417900e-02
   2.4767787e-02   1.1596221e-02   2.5835083e-02  -2.5533019e-02  -3.4458412e-02   7.8178071e-02  -4.6043283e-02   1.9333067e-01  -8.2052659e-02  -2.4875715e-01   1.4905970e-01  -1.0562821e-01  -7.0945380e-02   4.3685196e-02   1.3603449e-01   2.9744247e-01  -1.1427221e-01   9.0073987e-02   1.9607506e-02   1.6218556e-01   4.5466268e-01  -8.4915942e-02  -1.0488412e-01   9.1890395e-02  -1.4400126e-01  -1.3962455e-01   1.2951631e-01
   1.1746036e-02  -6.1240725e-03  -4.5141838e-02  -2.7934972e-01   2.1783232e-02  -1.0142968e-01   1.6262816e-01   2.6891028e-02   3.9585768e-01  -7.7441956e-02   7.3665611e-02  -5.8103196e-01   3.5510937e-01  -5.8264191e-01   1.7521288e-01  -2.7162876e-01  -3.0969766e-01   4.8150901e-02  -1.2554581e-01   2.6953766e-01  -1.0108645e-01   4.9009142e-01  -3.5792262e-02   6.7535993e-02  -3.0943185e-02   9.1761492e-02   1.3260555e-01
  -1.9790256e-02   3.4462985e-02   1.0430435e-01  -4.0065026e-02  -9.3295580e-02   1.0274227e-02   1.5530512e-01  -2.0506412e-02  -3.0236522e-01   2.2320842e-01   1.8755047e-01  -2.0343152e-01  -5.2459206e-01  -8.3720362e-03  -2.4851509e-01  -2.9701522e-01  -1.6999825e-01  -3.2343150e-03  -1.3365407e-01   1.6423660e-01  -3.5323487e-01   7.8472305e-01  -2.7387052e-01  -1.9090854e-01  -8.6829804e-02  -1.7984862e-02  -3.7901393e-01
  -3.1752533e-03  -5.4533561e-03   5.3327472e-02  -7.3056307e-02  -8.0529691e-02   1.6728997e-02   2.9579729e-02  -6.2383052e-02  -4.3447759e-01  -3.4110239e-02  -2.0497709e-01   5.3383614e-03   4.6288664e-01   2.4037292e-01  -7.4174770e-02   3.4714486e-03  -2.2567258e-01  -1.1753671e-01   2.7291156e-01   1.6667011e-01  -4.1523882e-01   3.9879138e-01  -1.3442555e-01  -4.8885168e-01   1.9517432e-02   1.0801878e-01  -3.0949906e-01
   3.8306312e-03  -2.5973942e-02  -1.0291185e-03  -2.4686813e-03   4.7779059e-02   2.5820245e-02  -7.7366792e-02  -2.5521328e-02  -1.5092586e-02  -5.4565265e-03  -2.0447320e-02   1.3547352e-01   2.6209160e-01  -8.1753482e-02   3.0628231e-02   1.1357166e-01   6.5601710e-02  -3.2541957e-01   8.6952581e-02   3.3915656e-01   1.6245295e-01  -2.2160436e-01   1.1330307e-01  -1.0903711e-01  -1.6112390e-02   1.1774238e-01   3.2998555e-01
  -6.5188156e-03  -3.2756898e-03   1.1721842e-02   4.9258478e-02   4.6364886e-02   2.2596038e-03   4.0745424e-02   8.0901780e-02   1.8665143e-02   3.5339705e-02  -7.9369959e-02  -2.1328011e-01  -3.5058479e-02  -1.6999250e-01  -3.5300656e-02   1.3412267e-01   2.6755060e-01   3.9264040e-01  -1.1251238e-01   2.9017935e-01   2.2223013e-02   1.7767787e-01   3.3183941e-01  -1.2448795e-01  -4.8915353e-02   2.6660725e-01  -1.3063789e-01
  -3.9158885e-03   2.1558653e-02  -3.3046573e-03  -1.9238690e-02  -2.9205695e-02  -2.0836534e-03   1.0339377e-02  -3.1797470e-02   3.1340962e-02   1.2599570e-01   4.7900859e-02  -1.8529850e-02   3.6832542e-02   2.3002998e-01   1.7246053e-01  -3.1739919e-01  -1.2689991e-01   3.5279417e-01   1.3222153e-01  -7.3952004e-02   4.0430545e-02  -3.5383923e-01   8.2793999e-02   3.8344742e-01  -8.6818717e-02   3.0157786e-01  -1.1412013e-01
  -2.0008010e-02  -4.4487654e-02   3.4888972e-02   7.2935292e-03   3.0384531e-02   5.3286011e-02   1.2007710e-01   3.1202102e-02   4.9962285e-02   7.6744030e-02   1.0031367e-02  -2.6965097e-02  -4.0350168e-03   2.8131780e-04   1.5205542e-01   6.6554016e-02  -8.1166326e-02  -1.6871911e-01  -1.1350727e-01   4.3612431e-01   2.5578065e-01   9.5279509e-02  -1.8304128e-01  -1.3029874e-01   3.9051193e-01  -3.3963445e-01  -3.7892917e-01
  -1.8980898e-02   1.6761192e-02  -2.4689429e-02  -1.9846420e-03   3.4545203e-02  -2.3959087e-02  -1.8578794e-02   1.1319027e-02  -3.0402154e-02   8.3181876e-02   2.3552542e-02   8.0011897e-02  -2.6992588e-02   7.8094846e-02  -3.8849385e-03   1.1587896e-01  -1.3579136e-01   2.0655344e-01  -4.3760280e-01   4.2368023e-01   2.1013590e-01  -1.9824056e-01   2.3401773e-01   1.8402241e-01  -1.7048133e-01   2.2295007e-01  -4.8712360e-02
   9.7844008e-03   1.6565813e-02  -2.6710379e-02   3.3119708e-03   2.6248679e-02  -3.0619733e-02   2.8448088e-02   4.9419012e-02  -4.4616375e-02   4.1009125e-02  -2.7329522e-01  -1.2045822e-01  -1.1185054e-01  -8.7509755e-02  -3.6178112e-01  -1.2325242e-01   1.0888635e-01   1.1771430e-01  -7.8931244e-02   2.4083999e-01  -1.9359507e-01  -2.2750424e-02  -1.0477292e-01  -5.9334534e-02   9.6316880e-02  -5.4608845e-02  -1.1928521e-01
   1.3223322e-02   2.8232488e-02   2.5165850e-02  -2.2784165e-02  -2.4513609e-02   7.6236742e-02  -2.4821305e-02   1.1877114e-01  -2.8363267e-02  -1.0866107e-01   1.4647362e-01   1.8950295e-02  -7.8027065e-02   4.4426597e-02   1.0426456e-01   1.8529584e-01  -6.6475424e-02   9.9704256e-02   1.4031869e-03   9.1497799e-03   2.9846582e-01  -6.2809556e-02   1.5099842e-01  -5.2476856e-02  -1.6226621e-01  -1.9324635e-02   1.1418243e-02
   1.1767640e-02  -8.1515122e-03  -3.3934184e-02  -2.4781296e-01   2.0290719e-02  -9.4523867e-02   1.6998640e-01   3.8783466e-02   3.6317194e-01  -6.9727461e-02   5.5512791e-02  -5.4978789e-01   2.6755151e-01  -5.1662742e-01   1.5469928e-01  -2.7675742e-01  -2.7930157e-01   4.5721128e-02  -1.3644621e-01   2.0259319e-01  -8.8312589e-02   4.0159415e-01  -5.7130899e-02   6.6457236e-03  -1.2003397e-02   5.9858452e-02   5.2174788e-02
  -1.7477392e-02   2.9324866e-02   9.6710834e-02  -4.9107189e-02  -1.0546472e-01   1.2112458e-02   1.3143892e-01  -7.5982579e-03  -2.7728950e-01   1.5649366e-01   1.4758308e-01  -2.0338285e-01  -4.3492840e-01  -4.2138970e-03  -1.3994104e-01  -3.0117450e-01  -1.0099155e-01   2.3821374e-02  -1.7925365e-01   1.5292384e-01  -2.9133141e-01   5.4277289e-01  -3.3637353e-01  -1.4728437e-01  -6.7512062e-02  -7.1692432e-02  -2.1958546e-01
  -9.4547949e-04  -7.0729665e-03   5.0535617e-02  -6.2005166e-02  -7.9243228e-02   2.3295666e-02   3.6864546e-02  -4.5758016e-02  -3.7156838e-01  -7.4681047e-03  -1.3492388e-01  -3.8057599e-02   3.6053769e-01   2.2101776e-01  -1.1186702e-01  -1.7189471e-02  -2.1264286e-01  -1.0713955e-01   2.3987401e-01   7.7374779e-02  -2.6288412e-01   3.6148598e-01  -1.0454238e-01  -3.9917473e-01  -1.4302973e-02   1.4313010e-01  -2.0127495e-01
   6.5052480e-04  -1.9720472e-02  -1.5303858e-03   2.1194652e-03   2.4373643e-02   1.7285363e-02  -6.5172364e-02  -5.4492515e-03  -3.3909378e-02  -5.6654969e-02  -7.6463815e-02   8.1776034e-02   3.2703448e-01  -2.4134765e-02   7.9024591e-02   6.1524876e-02   9.9657953e-02  -1.6518961e-01   3.5180558e-02   2.3272470e-01   1.0490327e-01  -2.1056963e-01   6.5254954e-02  -4.1068394e-02  -3.3806836e-02   1.8463546e-01   1.8980650e-01
  -5.3815903e-03  -5.4722309e-03   9.8959510e-03   2.0329818e-02   4.2070824e-02   5.9894931e-03   2.9647176e-02   4.5420602e-02   2.0461042e-02   2.8466469e-02  -2.8079581e-02  -1.5803247e-01  -1.5613885e-02  -1.3601265e-01  -3.2471175e-03   3.6308359e-02   1.7507570e-01   2.1763864e-01  -1.0313373e-01   2.5592480e-01   3.9500232e-02   1.3768466e-01   2.1646404e-01  -4.7977967e-02  -4.6333117e-02   2.1422644e-01  -7.6129589e-03
  -2.0410169e-03   1.7090242e-02  -4.8361819e-03   7.1290254e-03  -1.7878222e-02   2.5572491e-03   1.0527804e-02  -2.2397629e-02  -4.9576280e-03   7.3992791e-02   1.7951242e-02   1.3406209e-02   2.0725387e-02   1.5403553e-01   7.2298161e-02  -1.9048657e-01  -6.4577270e-02   2.3651565e-01   8.6821927e-02  -2.3532505e-02  -8.4832315e-03  -1.9285633e-01   3.9688135e-02   2.6361232e-01  -6.8383719e-02   1.5065668e-01  -6.6534267e-02
  -1.1780803e-02  -3.4282585e-02   1.5802599e-02  -9.6145523e-04   4.8087202e-02   2.6953948e-02   7.4879776e-02   1.5192794e-02   5.4423200e-02   8.5657385e-02  -1.1658493e-01  -2.3918397e-02  -5.8330597e-02  -6.0322748e-02   1.3547157e-01   8.0337401e-02  -1.0847114e-01  -1.4896446e-01  -1.1978901e-01   4.4526860e-01   1.0613767e-01   1.5010828e-01  -2.8283960e-01  -8.7462542e-02   4.2033965e-01  -2.6481041e-01  -4.0210906e-01
  -1.9023244e-02   3.4659954e-02  -3.2684971e-02   2.5846678e-03   1.0938558e-02  -2.7351193e-02   3.2433886e-03   2.6223916e-02  -4.8643058e-02   7.7951012e-03   1.1385392e-02   1.0634642e-01  -2.5996084e-02   9.5054169e-02   6.5459241e-02   2.5214590e-01  -1.8407143e-01   2.3669279e-01  -5.1417068e-01   5.0869207e-01   3.4958382e-01  -1.5678508e-01   1.8154570e-01   3.2600224e-01  -1.8012532e-01   2.6313433e-01  -1.7824084e-01
   1.0877115e-02   6.4034324e-03  -2.9080610e-02   3.3628339e-03   4.6027387e-02  -3.6171522e-02   3.1958998e-02   4.8690195e-02  -8.2200619e-03   8.9784843e-02  -2.8526149e-01  -4.9857178e-02  -1.3809826e-01  -1.2371054e-01  -3.3917969e-01  -1.0541628e-01   1.2053829e-01   8.7378492e-02  -8.9893789e-05   2.7272934e-01  -5.9156371e-02   3.5209291e-02  -1.3421205e-01  -2.3893946e-01   1.9876904e-01  -1.7986544e-01  -1.1063240e-01
   5.5596056e-03   3.5840497e-02   2.6741303e-02  -2.0836577e-02  -1.8639796e-02   6.9764680e-02  -6.0618475e-03   5.7284343e-02   1.6944866e-02   4.2968276e-03   1.3611140e-01   1.0813209e-01  -8.1640017e-02   4.2407776e-02   7.1035967e-02   7.5803771e-02  -2.7555227e-02   8.2960310e-02   1.0331594e-02  -9.9718386e-02   1.2834754e-01  -3.4796314e-02   3.2366372e-01  -1.7097395e-01  -1.5330822e-01   4.8205699e-02  -1.0046362e-01
   1.1683853e-02  -1.0376488e-02  -2.3430982e-02  -2.1951164e-01   1.8480026e-02  -8.6893186e-02   1.7597908e-01   4.7165635e-02   3.3144597e-01  -6.6381306e-02   4.0896313e-02  -5.1405487e-01   1.8657501e-01  -4.5512450e-01   1.3434484e-01  -2.7988566e-01  -2.4908385e-01   3.4142338e-02  -1.4889412e-01   1.3636902e-01  -6.9506511e-02   3.1779900e-01  -7.0687993e-02  -5.0312150e-02  -5.8866695e-03   2.0889682e-02  -1.6272372e-02
  -1.4751757e-02   2.4504594e-02   8.9343152e-02  -5.7309199e-02  -1.1299638e-01   1.4450872e-02   1.0973447e-01   1.5923425e-03  -2.5142202e-01   1.0391007e-01   1.1753928e-01  -1.9307360e-01  -3.5633639e-01  -3.1500140e-03  -4.6502193e-02  -2.9270146e-01  -4.7438866e-02   3.6130316e-02  -2.0855862e-01   1.3920361e-01  -2.2802185e-01   3.2404652e-01  -3.8620598e-01  -1.1652565e-01  -5.1497105e-02  -1.2282357e-01  -4.9080418e-02
   1.6789698e-03  -8.8390884e-03   4.7487687e-02  -5.1746350e-02  -7.8742105e-02   2.7094738e-02   4.3870204e-02  -3.4025200e-02  -3.1870108e-01   1.3208416e-02  -7.5034647e-02  -7.6482888e-02   2.6761254e-01   2.0132608e-01  -1.4183056e-01  -2.1479840e-02  -1.9268616e-01  -8.7268205e-02   2.0791988e-01   1.4705161e-02  -1.2986212e-01   3.3771653e-01  -7.6031703e-02  -3.1167072e-01  -4.2075638e-02   1.7271776e-01  -1.1823191e-01
  -1.7697165e-03  -1.1649135e-02  -3.8912885e-03   1.1579821e-03  -1.7934956e-03   4.5585347e-03  -4.7932289e-02   8.3922087e-03  -4.8566004e-02  -1.0302168e-01  -1.2384307e-01   3.5401136e-02   3.6281532e-01   4.3491363e-02   1.2282079e-01   1.7100006e-02   1.0317221e-01  -4.6566596e-03  -6.8468150e-03   1.0143429e-01   2.6183169e-02  -1.9640238e-01   1.3753623e-02   6.7541374e-03  -2.7728234e-02   2.0861635e-01   4.6627039e-02
  -2.6906191e-03  -5.6323475e-03   4.0495062e-03  -1.5683033e-02   2.5733094e-02   4.4453182e-03   1.1674668e-02   3.9226571e-03   2.6213485e-02   1.1959655e-02   2.7875586e-02  -7.6479475e-02   1.2254912e-02  -8.9652035e-02   2.7157492e-02  -5.3193248e-02   5.8161246e-02   2.2087818e-02  -8.7063481e-02   1.6694491e-01   3.8252600e-02   8.2418094e-02   6.4926103e-02   2.5897069e-02  -3.1412840e-02   1.3168003e-01   8.9892831e-02
   1.0059464e-04   9.3569077e-03  -4.8694055e-03   3.3651127e-02  -5.4228869e-03   8.4330192e-03   4.5327916e-03  -1.0274154e-02  -4.2424454e-02   1.5688491e-02  -1.1002864e-02   4.6852950e-02  -9.4752178e-03   6.4999398e-02  -3.7018010e-02  -3.7583103e-02   1.2762052e-02   9.5290550e-02   2.6720198e-02   2.1006315e-02  -5.0459715e-02  -2.2623948e-02   4.3781781e-03   1.0270235e-01  -3.1443106e-02  -5.8258050e-03  -2.5135630e-02
  -5.3106878e-03  -2.4986882e-02   6.5614601e-03  -6.2032584e-03   5.4107215e-02   8.2035393e-03   3.5995190e-02   3.3946296e-03   5.3295826e-02   7.9430690e-02  -1.9202072e-01  -1.1790403e-02  -9.1077358e-02  -1.0602221e-01   1.3682923e-01   8.3078919e-02  -1.0953935e-01  -1.2435750e-01  -1.0696238e-01   3.9950050e-01  -1.2098243e-02   1.8722593e-01  -3.2471497e-01  -6.6514747e-02   3.9660074e-01  -1.8877075e-01  -3.6652484e-01
  -1.7201189e-02   4.1027311e-02  -3.6688548e-02   3.2464333e-03  -4.3841051e-03  -3.2059953e-02   2.2566225e-02   3.2800102e-02  -5.9422527e-02  -5.0704521e-02  -7.4694402e-03   1.1737172e-01  -1.9163129e-02   9.3819353e-02   1.0968090e-01   3.4021288e-01  -2.0472674e-01   2.3356319e-01  -5.1233063e-01   5.1513100e-01   4.2042365e-01  -1.0247982e-01   1.1792262e-01   4.0965603e-01  -1.6009994e-01   2.7815829e-01  -2.7090720e-01
   1.1272815e-02  -7.3502969e-05  -2.8844303e-02   3.8316804e-03   5.7198931e-02  -4.0358244e-02   3.4787140e-02   4.8664123e-02   1.5849325e-02   1.1183678e-01  -2.6518530e-01   1.4767792e-02  -1.4435203e-01  -1.4055177e-01  -3.0260038e-01  -9.5367679e-02   1.2650518e-01   7.0795408e-02   7.2437634e-02   2.5082043e-01   4.6794869e-02   8.6699724e-02  -1.3846268e-01  -3.4771336e-01   2.4558159e-01  -2.4991709e-01  -7.3108127e-02
   1.1700263e-03   3.6691397e-02   2.9961139e-02  -1.9521970e-02  -1.6531201e-02   6.0626688e-02   9.2820776e-03   9.1046570e-03   5.3473952e-02   9.1354155e-02   1.2077022e-01   1.6448466e-01  -8.1920372e-02   3.9133802e-02   4.0860207e-02  -2.7832720e-02   4.1065513e-03   4.9236524e-02   3.5409664e-02  -1.7075687e-01  -4.1084510e-02  -6.0751721e-03   4.2391443e-01  -2.5776873e-01  -1.2878061e-01   7.1617519e-02  -1.9565037e-01
   1.1474185e-02  -1.2748213e-02  -1.3756271e-02  -1.9440184e-01   1.6291900e-02  -7.8609662e-02   1.8027827e-01   5.2171168e-02   3.0081948e-01  -6.7043935e-02   2.9862518e-02  -4.7445289e-01   1.1274936e-01  -3.9747183e-01   1.1457257e-01  -2.8045815e-01  -2.1963220e-01   1.5745971e-02  -1.6223268e-01   7.1318230e-02  -4.6221135e-02   2.3954970e-01  -7.6017929e-02  -1.0265209e-01  -1.1498258e-02  -2.2961592e-02  -7.3441036e-02
  -1.1728235e-02   1.9921495e-02   8.2269314e-02  -6.4187864e-02  -1.1627750e-01   1.6862463e-02   9.0476657e-02   7.7287796e-03  -2.2580810e-01   6.3993545e-02   9.5948896e-02  -1.7452128e-01  -2.8710987e-01  -4.8242213e-03   3.1547447e-02  -2.7250575e-01  -7.5005701e-03   3.8437578e-02  -2.2292286e-01   1.2372104e-01  -1.6361880e-01   1.3133749e-01  -4.2318790e-01  -9.7926113e-02  -4.0397709e-02  -1.6818122e-01   1.2275455e-01
   4.5656042e-03  -1.0711052e-02   4.4306087e-02  -4.2617688e-02  -7.8974451e-02   2.8449736e-02   5.0654363e-02  -2.6829682e-02  -2.7538063e-01   2.7703215e-02  -2.5646898e-02  -1.0955936e-01   1.8432748e-01   1.8190851e-01  -1.6382313e-01  -1.2493354e-02  -1.6689285e-01  -5.8911157e-02   1.7711959e-01  -2.6241219e-02  -1.7488623e-02   3.2563650e-01  -5.1238858e-02  -2.2626175e-01  -6.5274575e-02   1.9307551e-01  -5.8344672e-02
  -2.6820705e-03  -4.5689048e-03  -7.5859060e-03  -4.2684590e-03  -2.3140369e-02  -8.3376511e-03  -3.1833095e-02   1.2853031e-02  -5.7008090e-02  -1.3466187e-01  -1.5354247e-01   1.0172072e-02   3.7086870e-01   1.0244115e-01   1.5177648e-01  -9.6455275e-03   8.1228666e-02   1.1361891e-01  -2.2716059e-02  -1.3254896e-02  -4.4731098e-02  -1.8457418e-01  -2.3934640e-02   2.5452917e-02  -1.2568129e-03   1.9500912e-01  -6.1533494e-02
   6.1173370e-04  -3.9276270e-03  -3.2511950e-03  -4.9205829e-02   3.4015181e-03  -1.1177020e-03  -6.0618570e-03  -3.1662053e-02   3.4627956e-02  -8.3357351e-03   7.3007636e-02   2.7623154e-03   3.9004322e-02  -4.6145338e-02   5.0912329e-02  -1.1625756e-01  -4.7460926e-02  -1.3359540e-01  -7.0394175e-02   5.5734865e-02   2.5594625e-02   2.7492834e-02  -7.3563341e-02   7.9747081e-02  -1.1708245e-02   4.8228020e-02   1.4080526e-01
   1.7484838e-03   1.0695179e-03  -3.4194461e-03   5.3973110e-02   5.0826594e-03   1.4761134e-02  -4.2481242e-03   6.1866711e-04  -7.2660664e-02  -3.1526203e-02  -3.1774136e-02   7.2369751e-02  -4.4503524e-02  -8.2608047e-03  -1.2530486e-01   9.4330018e-02   8.1515645e-02  -2.8747933e-02  -3.1015840e-02   5.0874616e-02  -7.5098666e-02   1.0792005e-01  -1.3782240e-02  -4.6262177e-02   8.6415993e-03  -1.2518299e-01  -2.8518868e-03
  -5.7532135e-04  -1.6784432e-02   5.1628940e-03  -9.2262496e-03   5.0660336e-02  -3.5109073e-03   3.6278365e-03  -4.9210561e-03   4.8815976e-02   6.2608100e-02  -2.2510210e-01   3.9974505e-03  -1.0594641e-01  -1.3604869e-01   1.4905705e-01   7.8038139e-02  -9.2379210e-02  -9.8834658e-02  -8.3201323e-02   3.1566357e-01  -9.9002660e-02   2.0267015e-01  -3.2074096e-01  -6.2012569e-02   3.3371860e-01  -1.1359023e-01  -2.8801294e-01
  -1.4187313e-02   3.8824863e-02  -3.7638621e-02   1.1821783e-03  -1.2527855e-02  -3.6772864e-02   3.8233604e-02   3.3574074e-02  -6.3534385e-02  -9.3518494e-02  -2.9413242e-02   1.1561224e-01  -8.5178900e-03   7.9968858e-02   1.3305942e-01   3.8565468e-01  -2.0349754e-01   2.0470252e-01  -4.5514676e-01   4.6097228e-01   4.3891694e-01  -4.2623743e-02   4.7119027e-02   4.4911766e-01  -1.2539902e-01   2.7007102e-01  -3.3027135e-01
   1.1046463e-02  -3.4010354e-03  -2.6964748e-02   4.3515324e-03   6.1364780e-02  -4.3198314e-02   3.7154593e-02   4.8652463e-02   3.0586636e-02   1.1285783e-01  -2.2236916e-01   6.9546590e-02  -1.3560535e-01  -1.4007761e-01  -2.5783409e-01  -9.1074541e-02   1.2466488e-01   6.4722872e-02   1.3356248e-01   1.9029666e-01   1.2630180e-01   1.2634288e-01  -1.2612555e-01  -3.9319599e-01   2.5184023e-01  -2.7666003e-01  -2.1671243e-02
  -5.8506868e-04   3.2981812e-02   3.4239552e-02  -1.8639471e-02  -1.7676141e-02   5.0440900e-02   2.0632450e-02  -2.6336060e-02   8.1143450e-02   1.5451691e-01   1.0293179e-01   1.9170607e-01  -7.9208463e-02   3.5759843e-02   1.7201983e-02  -1.2238203e-01   2.9660088e-02   7.2854942e-03   6.7043277e-02  -2.1054987e-01  -1.9743957e-01   1.9420466e-02   4.6390992e-01  -3.1071813e-01  -9.7768697e-02   6.1125647e-02  -2.6588812e-01
   1.1117212e-02  -1.5230670e-02  -4.9974621e-03  -1.7222502e-01   1.3787366e-02  -6.9722644e-02   1.8268622e-01   5.4096941e-02   2.7131508e-01  -7.1201041e-02   2.2196493e-02  -4.3194371e-01   4.6253576e-02  -3.4332755e-01   9.5442196e-02  -2.7765671e-01  -1.9100829e-01  -6.8873073e-03  -1.7574548e-01   8.5463374e-03  -2.0180297e-02   1.6813885e-01  -7.2313254e-02  -1.5021083e-01  -2.7272147e-02  -6.9331446e-02  -1.2021995e-01
  -8.5715581e-03   1.5580347e-02   7.5564007e-02  -6.9412665e-02  -1.1590942e-01   1.8862142e-02   7.4081325e-02   1.1627350e-02  -2.0134582e-01   3.4934649e-02   8.1062561e-02  -1.5032741e-01  -2.2595638e-01  -8.3165799e-03   9.4714120e-02  -2.4237001e-01   2.0744152e-02   3.6030240e-02  -2.2421981e-01   1.0632913e-01  -9.9379274e-02  -3.3580954e-02  -4.4760725e-01  -9.0371077e-02  -3.4925549e-02  -2.0539162e-01   2.8549272e-01
   7.5896765e-03  -1.2673381e-02   4.1152910e-02  -3.4956263e-02  -7.9754655e-02   2.7851887e-02   5.7029525e-02  -2.3874333e-02  -2.4076082e-01   3.6207205e-02   1.3639930e-02  -1.3662550e-01   1.1072832e-01   1.6304146e-01  -1.7794082e-01   6.5048322e-03  -1.3648555e-01  -2.4694183e-02   1.4777606e-01  -5.0067532e-02   7.4296501e-02   3.2278595e-01  -3.1810575e-02  -1.4306284e-01  -8.5559481e-02   2.0111050e-01  -1.7636161e-02
  -1.8858696e-03  -7.5274863e-05  -1.1984548e-02  -1.2282948e-02  -3.6114399e-02  -1.8924937e-02  -2.0828392e-02   8.1899292e-03  -5.9136910e-02  -1.4843665e-01  -1.6338739e-01   1.0123114e-02   3.5843777e-01   1.4189906e-01   1.6142404e-01  -1.5132238e-02   4.2885065e-02   1.7174767e-01  -8.1952760e-03  -8.9862137e-02  -9.1021061e-02  -1.7676738e-01  -3.9170405e-02   1.6503491e-02   3.6695247e-02   1.5596300e-01  -1.2087151e-01
   3.7897704e-03  -8.7022452e-04  -1.0050359e-02  -7.4643520e-02  -1.9433928e-02  -8.9877220e-03  -1.8904629e-02  -5.5047091e-02   4.4748354e-02  -2.6648468e-02   1.0054351e-01   6.1702757e-02   5.8420510e-02  -1.4421607e-02   6.6489168e-02  -1.4714488e-01  -1.2236364e-01  -2.1857211e-01  -5.5123334e-02  -5.0845360e-02   9.3940119e-03  -1.8405151e-02  -1.6703428e-01   1.0714611e-01   7.5996322e-03  -1.6847194e-02   1.4360284e-01
   2.5839028e-03  -5.7980460e-03  -8.9143634e-04   6.5030554e-02   1.1700703e-02   2.0529549e-02  -1.3373559e-02   7.6106264e-03  -9.1526381e-02  -5.8931380e-02  -4.1172050e-02   8.6976563e-02  -7.5717266e-02  -5.0592697e-02  -1.7710862e-01   1.7849362e-01   1.2695855e-01  -1.1412515e-01  -7.5014512e-02   6.2481855e-02  -7.9320832e-02   1.7508020e-01  -1.6047999e-02  -1.4997072e-01   3.9623783e-02  -1.8822032e-01  -1.7538630e-03
   2.5282071e-03  -9.7931050e-03   9.5031768e-03  -1.0653691e-02   4.0315212e-02  -9.0938397e-03  -2.2302892e-02  -1.0450391e-02   4.2923562e-02   3.9769613e-02  -2.2543959e-01   1.9083797e-02  -1.0654581e-01  -1.5108599e-01   1.6554471e-01   6.8541942e-02  -6.4581929e-02  -7.5815511e-02  -5.5874737e-02   2.1032951e-01  -1.5637568e-01   1.9569517e-01  -2.8356981e-01  -6.8388168e-02   2.4518747e-01  -4.0915371e-02  -1.8231754e-01
  -1.0589538e-02   3.0811119e-02  -3.6335789e-02  -2.5346993e-03  -1.4661051e-02  -4.0554167e-02   4.9445822e-02   3.0536753e-02  -6.1995912e-02  -1.2213008e-01  -5.1419529e-02   1.0393055e-01   4.2039937e-03   5.8444815e-02   1.3984364e-01   3.9491432e-01  -1.8621539e-01   1.5722042e-01  -3.6340146e-01   3.6393905e-01   4.1988727e-01   1.6898773e-02  -2.7218179e-02   4.5661206e-01  -8.7215585e-02   2.4282713e-01  -3.6048731e-01
   1.0303324e-02  -4.1849975e-03  -2.4347869e-02   4.7868552e-03   6.0351188e-02  -4.4798952e-02   3.9183116e-02   4.8164359e-02   3.8753983e-02   9.8710928e-02  -1.6575550e-01   1.1180290e-01  -1.1659832e-01  -1.2532018e-01  -2.1019226e-01  -8.9980136e-02   1.1369922e-01   6.5808330e-02   1.7966259e-01   1.0633004e-01   1.8157444e-01   1.5130462e-01  -1.0437987e-01  -3.8496428e-01   2.3108207e-01  -2.7146576e-01   3.1187437e-02
  -3.3782268e-04   2.6706490e-02   3.9030584e-02  -1.7970977e-02  -2.1391215e-02   4.0523308e-02   2.7786556e-02  -5.0250146e-02   1.0014926e-01   1.9638209e-01   8.4638562e-02   1.9441404e-01  -7.4080415e-02   3.2999207e-02   2.2843212e-03  -2.0475854e-01   4.9940436e-02  -3.5253625e-02   9.7516125e-02  -2.2556319e-01  -3.3100680e-01   3.9214115e-02   4.5662810e-01  -3.3109662e-01  -6.6761282e-02   2.7681172e-02  -3.0557722e-01
   1.0593824e-02  -1.7798372e-02   2.7885669e-03  -1.5260378e-01   1.1113375e-02  -6.0266380e-02   1.8310982e-01   5.3308481e-02   2.4288111e-01  -7.8153221e-02   1.7544453e-02  -3.8765515e-01  -1.3009004e-02  -2.9251403e-01   7.6815782e-02  -2.7077061e-01  -1.6302883e-01  -3.1286575e-02  -1.8859800e-01  -5.0352347e-02   6.8751083e-03   1.0492735e-01  -5.8717004e-02  -1.9300047e-01  -5.1217034e-02  -1.1572907e-01  -1.5748118e-01
  -5.4635076e-03   1.1524412e-02   6.9298187e-02  -7.2826737e-02  -1.1254404e-01   1.9993367e-02   6.0946578e-02   1.4091400e-02  -1.7870742e-01   1.4880854e-02   7.1148698e-02  -1.2316567e-01  -1.7214361e-01  -1.2537390e-02   1.4392015e-01  -2.0455283e-01   3.9099049e-02   3.3517006e-02  -2.1431484e-01   8.6811363e-02  -3.7009212e-02  -1.6995953e-01  -4.5995937e-01  -9.2652185e-02  -3.4847874e-02  -2.3313459e-01   4.2935375e-01
   1.0629395e-02  -1.4711433e-02   3.8218408e-02  -2.9056642e-02  -8.0858820e-02   2.5879668e-02   6.2638970e-02  -2.4846627e-02  -2.1375212e-01   3.9176325e-02   4.3725300e-02  -1.5698199e-01   4.6804575e-02   1.4479069e-01  -1.8451414e-01   3.2163966e-02  -1.0272060e-01   1.1915567e-02   1.2021861e-01  -6.1181655e-02   1.4659365e-01   3.2633876e-01  -1.8800881e-02  -6.2283057e-02  -1.0471725e-01   1.9475114e-01   8.8466184e-03
   3.5770897e-04   1.3213868e-03  -1.6404870e-02  -2.0703361e-02  -4.0303185e-02  -2.6035765e-02  -1.6477178e-02  -3.0063628e-03  -5.6258304e-02  -1.4623027e-01  -1.5637077e-01   3.1357432e-02   3.3515481e-01   1.5835676e-01   1.5221231e-01  -9.5255154e-04  -1.2239046e-03   1.7174504e-01   3.1180651e-02  -1.2329184e-01  -1.0686411e-01  -1.7194223e-01  -3.0215988e-02  -1.1909758e-02   7.5204758e-02   1.0595933e-01  -1.3578789e-01
   6.3676086e-03   2.8168452e-03  -1.5164436e-02  -8.9819547e-02  -3.8429650e-02  -1.7466984e-02  -2.4748162e-02  -6.4649540e-02   5.5783856e-02  -3.8544255e-02   1.1026531e-01   9.2595286e-02   6.7915512e-02   1.7305874e-03   7.4361874e-02  -1.4876986e-01  -1.6083562e-01  -2.2792324e-01  -4.0805138e-02  -1.3354857e-01  -3.7078221e-03  -5.1394470e-02  -2.0202512e-01   1.0977442e-01   2.3217133e-02  -5.4427110e-02   1.0957498e-01
   2.6400406e-03  -1.0116145e-02   2.1477533e-03   6.6619484e-02   1.3562637e-02   2.4723380e-02  -2.1420802e-02   9.5744954e-03  -9.8526461e-02  -6.5274003e-02  -3.9256349e-02   9.2390999e-02  -9.6709180e-02  -5.8921953e-02  -1.8950792e-01   2.0694556e-01   1.4368928e-01  -1.5551202e-01  -9.9248352e-02   5.6387936e-02  -6.5466569e-02   1.7663365e-01  -9.4998346e-03  -1.9501896e-01   5.4315681e-02  -1.9430281e-01  -1.6369030e-02
   4.1751553e-03  -4.0708018e-03   1.7508627e-02  -1.0934734e-02   2.5764610e-02  -9.6993588e-03  -4.2091168e-02  -1.3800840e-02   3.7156801e-02   1.5157212e-02  -2.0275229e-01   3.0205290e-02  -9.6366632e-02  -1.5298771e-01   1.8060120e-01   5.7782886e-02  -3.2808922e-02  -5.7786554e-02  -3.1170331e-02   9.8746513e-02  -1.8753464e-01   1.6840234e-01  -2.2545061e-01  -8.0438562e-02   1.4310609e-01   2.7882792e-02  -6.4195818e-02
  -6.9267457e-03   1.9445676e-02  -3.3439000e-02  -6.9649545e-03  -1.2003360e-02  -4.2789395e-02   5.5786282e-02   2.5200622e-02  -5.6006668e-02  -1.3827037e-01  -7.1073373e-02   8.5246631e-02   1.7472744e-02   3.3462174e-02   1.3405593e-01   3.7492422e-01  -1.5839420e-01   9.7719915e-02  -2.5487228e-01   2.4067838e-01   3.7621218e-01   7.1629653e-02  -1.0144342e-01   4.4228054e-01  -5.3142534e-02   2.0148573e-01  -3.6610250e-01
   9.1700102e-03  -3.0688795e-03  -2.1777545e-02   5.1903212e-03   5.6019686e-02  -4.5328896e-02   4.0912142e-02   4.6915764e-02   4.2717112e-02   7.4990852e-02  -1.0344841e-01   1.4005918e-01  -9.1645638e-02  -9.9970236e-02  -1.6420822e-01  -8.9243103e-02   9.3221282e-02   7.0935564e-02   2.0865285e-01   1.3163201e-02   2.1494965e-01   1.6109825e-01  -7.8702171e-02  -3.3402326e-01   1.9498801e-01  -2.4484258e-01   7.6026056e-02
   1.3191881e-03   1.9560750e-02   4.3848259e-02  -1.7296027e-02  -2.6877575e-02   3.1866138e-02   3.0889106e-02  -6.4306620e-02   1.1092014e-01   2.1993043e-01   6.7428998e-02   1.7785351e-01  -6.7330238e-02   3.1107810e-02  -2.9856748e-03  -2.7219835e-01   6.5614246e-02  -7.2186738e-02   1.2121849e-01  -2.2183681e-01  -4.3497449e-01   5.2255723e-02   4.1530400e-01  -3.2308601e-01  -3.9787152e-02  -1.7847844e-02  -3.1197711e-01
   9.8915014e-03  -2.0429364e-02   9.5671656e-03  -1.3511836e-01   8.4587193e-03  -5.0276305e-02   1.8153328e-01   5.0170744e-02   2.1542448e-01  -8.7038179e-02   1.5496242e-02  -3.4271012e-01  -6.5280973e-02  -2.4490619e-01   5.8485640e-02  -2.5944751e-01  -1.3547794e-01  -5.5376016e-02  -1.9983490e-01  -1.0350462e-01   3.3293445e-02   5.1061076e-02  -3.4659350e-02  -2.3095046e-01  -8.1006571e-02  -1.5964889e-01  -1.8595191e-01
  -2.5750767e-03   7.7990486e-03   6.3532062e-02  -7.4443296e-02  -1.0677908e-01   1.9890099e-02   5.1320647e-02   1.5798531e-02  -1.5830003e-01   2.1406963e-03   6.4700167e-02  -9.5388603e-02  -1.2546935e-01  -1.6545319e-02   1.8023571e-01  -1.6147148e-01   4.9158170e-02   3.4017234e-02  -1.9470879e-01   6.5350543e-02   2.1754687e-02  -2.7802001e-01  -4.6078534e-01  -1.0359560e-01  -3.9134486e-02  -2.5113449e-01   5.4618528e-01
   1.3562289e-02  -1.6790926e-02   3.5707835e-02  -2.5137509e-02  -8.2091349e-02   2.3128252e-02   6.7048844e-02  -2.9365082e-02  -1.9312605e-01   3.7222026e-02   6.5785185e-02  -1.7011167e-01  -7.4791441e-03   1.2712595e-01  -1.8401426e-01   6.1152218e-02  -6.6821256e-02   4.7334075e-02   9.4659239e-02  -6.3812277e-02   2.0121184e-01   3.3333895e-01  -1.2723942e-02   1.5804213e-02  -1.2450512e-01   1.7319856e-01   2.6184465e-02
   3.4790316e-03  -6.4220721e-05  -2.0206554e-02  -2.7535732e-02  -3.7330218e-02  -2.9480474e-02  -1.8270105e-02  -1.7074526e-02  -5.0454364e-02  -1.3291587e-01  -1.3854242e-01   6.4972791e-02   3.1015416e-01   1.5412537e-01   1.2804943e-01   2.7842629e-02  -4.1224106e-02   1.2858349e-01   8.3870372e-02  -1.1985102e-01  -9.5004196e-02  -1.6735085e-01  -3.2595884e-04  -4.8612946e-02   1.0444276e-01   5.8072188e-02  -1.2158023e-01
   8.1207678e-03   6.3468586e-03  -1.8158303e-02  -9.5100986e-02  -5.0740029e-02  -2.5193552e-02  -2.3686342e-02  -6.2202806e-02   6.6950964e-02  -4.1728577e-02   1.0601036e-01   9.6014479e-02   6.8005279e-02   2.2686135e-03   7.5860257e-02  -1.2888630e-01  -1.6688016e-01  -1.7572503e-01  -2.6246286e-02  -1.8152213e-01  -9.6456619e-03  -7.0395113e-02  -1.8144939e-01   9.3981982e-02   3.3393085e-02  -6.4067509e-02   5.5936700e-02
   2.1719548e-03  -1.1544577e-02   5.1565482e-03   6.0631409e-02   1.0707162e-02   2.6560155e-02  -2.7839244e-02   6.8342781e-03  -9.5812707e-02  -5.4691932e-02  -2.8358562e-02   9.2843625e-02  -1.0421114e-01  -3.9131968e-02  -1.6865524e-01   1.8641375e-01   1.3436295e-01  -1.5805737e-01  -1.0220909e-01   3.6112292e-02  -3.9015649e-02   1.2564820e-01  -2.5807977e-03  -1.8480758e-01   5.1088475e-02  -1.5511663e-01  -3.7350917e-02
   4.5983855e-03   3.8273923e-04   2.7252088e-02  -1.0364962e-02   9.5976631e-03  -6.6111663e-03  -5.6172610e-02  -1.5466578e-02   3.2584733e-02  -7.6428575e-03  -1.6623210e-01   3.5193377e-02  -7.8747477e-02  -1.4441660e-01   1.8981437e-01   4.8593918e-02  -2.4137103e-03  -4.5973699e-02  -1.3789864e-02  -6.0101860e-03  -1.9694227e-01   1.2514536e-01  -1.5738395e-01  -9.3711741e-02   3.7860937e-02   9.1560055e-02   5.3423328e-02
  -3.6138274e-03   6.8270048e-03  -2.9483818e-02  -1.1323129e-02  -5.8045762e-03  -4.3118049e-02   5.7227084e-02   1.8671738e-02  -4.6882080e-02  -1.4385517e-01  -8.6572132e-02   6.2310270e-02   2.9891720e-02   8.4695604e-03   1.1931948e-01   3.3278205e-01  -1.2494860e-01   3.2301906e-02  -1.4391378e-01   1.0617918e-01   3.1856987e-01   1.1841708e-01  -1.7170644e-01   4.1410233e-01  -2.7462233e-02   1.5142611e-01  -3.5176089e-01
   7.7835230e-03  -6.9695044e-04  -1.9865923e-02   5.7392691e-03   5.0088011e-02  -4.4991603e-02   4.2317964e-02   4.4809005e-02   4.4335405e-02   4.6652266e-02  -4.2331107e-02   1.5398240e-01  -6.4492662e-02  -6.8005869e-02  -1.2341101e-01  -8.6043373e-02   6.3799428e-02   7.7508146e-02   2.1994217e-01  -7.6697176e-02   2.2889717e-01   1.5717095e-01  -5.2826049e-02  -2.5211197e-01   1.5320028e-01  -2.0617181e-01   1.0675540e-01
   3.8558523e-03   1.2876097e-02   4.8279390e-02  -1.6408095e-02  -3.3287466e-02   2.5139799e-02   3.0379630e-02  -7.0433402e-02   1.1408165e-01   2.2831407e-01   5.2325776e-02   1.4757063e-01  -5.9903379e-02   2.9939435e-02   1.0254614e-03  -3.2241927e-01   7.7282114e-02  -9.8971827e-02   1.3463369e-01  -2.0473205e-01  -5.0540989e-01   5.8714998e-02   3.5282366e-01  -2.9306442e-01  -1.8699907e-02  -6.5421959e-02  -2.8521620e-01
   9.0085671e-03  -2.3097080e-02   1.5318193e-02  -1.1935844e-01   6.0072743e-03  -3.9809666e-02   1.7799391e-01   4.5010753e-02   1.8883280e-01  -9.6896089e-02   1.5628260e-02  -2.9808551e-01  -1.1083252e-01  -2.0036891e-01   4.0261736e-02  -2.4380877e-01  -1.0823052e-01  -7.7646544e-02  -2.0842995e-01  -1.4899132e-01   5.7576448e-02   7.2938870e-03  -1.5356225e-04  -2.6376852e-01  -1.1410052e-01  -1.9871801e-01  -2.0616336e-01
  -4.6950365e-05   4.4303148e-03   5.8312480e-02  -7.4419809e-02  -9.9113468e-02   1.8313337e-02   4.5210297e-02   1.7245696e-02  -1.4026529e-01  -4.7141307e-03   6.0540104e-02  -6.8795864e-02  -8.6101297e-02  -1.9752054e-02   2.0470810e-01  -1.1548183e-01   5.2304504e-02   3.8820892e-02  -1.6639795e-01   4.2721247e-02   7.5444473e-02  -3.5886734e-01  -4.5059994e-01  -1.2203667e-01  -4.6248476e-02  -2.5997298e-01   6.3005054e-01
   1.6264124e-02  -1.8843832e-02   3.3825371e-02  -2.3318637e-02  -8.3320089e-02   2.0154009e-02   6.9841608e-02  -3.6950632e-02  -1.7761030e-01   3.1036363e-02   8.1085460e-02  -1.7584221e-01  -5.2223201e-02   1.1000921e-01  -1.7698667e-01   9.0288669e-02  -2.9943154e-02   7.8439252e-02   7.1134212e-02  -6.1936366e-02   2.4037019e-01   3.4092551e-01  -1.3559447e-02   9.0828037e-02  -1.4641231e-01   1.3701345e-01   3.8940209e-02
   6.7834467e-03  -3.4102072e-03  -2.2891776e-02  -3.1370876e-02  -2.9785676e-02  -2.9701186e-02  -2.4292067e-02  -3.0463309e-02  -4.3994170e-02  -1.1442447e-01  -1.1690593e-01   1.0033579e-01   2.9009008e-01   1.3530086e-01   9.4680691e-02   6.4500333e-02  -6.9755934e-02   6.2906645e-02   1.3658236e-01  -9.1936876e-02  -6.3660682e-02  -1.5943848e-01   4.4139712e-02  -8.2597771e-02   1.1799738e-01   2.1575976e-02  -9.7124117e-02
   9.0234480e-03   9.0097245e-03  -1.9182393e-02  -9.2429013e-02  -5.5112228e-02  -3.1289361e-02  -1.7357323e-02  -5.1261566e-02   7.7392886e-02  -3.6273062e-02   9.3302134e-02   7.8036926e-02   6.1269869e-02  -1.0431769e-02   7.2444972e-02  -9.6850998e-02  -1.4983315e-01  -8.6697077e-02  -1.0920416e-02  -1.9194279e-01  -7.4343952e-03  -7.5701748e-02  -1.2008015e-01   6.7608101e-02   3.7594509e-02  -5.1456614e-02  -1.2434813e-04
   1.5171766e-03  -1.0371406e-02   7.7362741e-03   5.0124782e-02   3.8948825e-03   2.5682954e-02  -3.2673123e-02   7.9517062e-04  -8.6995603e-02  -3.4213951e-02  -1.2043436e-02   9.2948231e-02  -9.8201289e-02  -2.1766099e-03  -1.2588929e-01   1.3273372e-01   1.0709507e-01  -1.3212438e-01  -8.6005226e-02   6.8852263e-03  -6.4610074e-03   4.3309077e-02  -1.7990258e-03  -1.3422388e-01   3.2999617e-02  -8.8493712e-02  -5.5115356e-02
   4.0697614e-03   3.6239468e-03   3.7049005e-02  -9.1275267e-03  -5.9013230e-03  -1.1305512e-03  -6.5062091e-02  -1.5835348e-02   2.9787679e-02  -2.5932086e-02  -1.2400448e-01   3.2949722e-02  -5.6831876e-02  -1.2844997e-01   1.9028017e-01   4.3219367e-02   2.2765162e-02  -4.0199154e-02  -6.7370745e-03  -9.3639032e-02  -1.8972743e-01   7.1788522e-02  -8.8532842e-02  -1.0475239e-01  -6.2072281e-02   1.4888579e-01   1.6010323e-01
  -9.5327851e-04  -5.3449789e-03  -2.4910884e-02  -1.4995800e-02   2.6925160e-03  -4.1382412e-02   5.4107372e-02   1.1719677e-02  -3.5964822e-02  -1.4089871e-01  -9.6713410e-02   3.7579354e-02   4.0169541e-02  -1.3855533e-02   9.8723554e-02   2.7546683e-01  -9.0046225e-02  -3.3467333e-02  -4.1294997e-02  -2.6581818e-02   2.5540743e-01   1.5525620e-01  -2.3401565e-01   3.7796184e-01  -1.1576015e-02   9.7668314e-02  -3.2192077e-01
   6.2799082e-03   2.3224372e-03  -1.9022523e-02   6.6606018e-03   4.3984028e-02  -4.4003661e-02   4.3331131e-02   4.1889703e-02   4.4916414e-02   1.7739109e-02   1.2197498e-02   1.5428103e-01  -3.8198867e-02  -3.3320038e-02  -9.0193332e-02  -7.7912448e-02   2.6867504e-02   8.3606183e-02   2.1427856e-01  -1.5312052e-01   2.2604706e-01   1.4233294e-01  -2.8938207e-02  -1.5097911e-01   1.1324526e-01  -1.6351722e-01   1.2061348e-01
   6.8189343e-03   7.5879543e-03   5.1989897e-02  -1.5133925e-02  -3.9788669e-02   2.0706542e-02   2.6919694e-02  -7.0628926e-02   1.1043343e-01   2.2466190e-01   3.9865282e-02   1.0909818e-01  -5.2785948e-02   2.9056687e-02   1.2825903e-02  -3.5376045e-01   8.5515500e-02  -1.1284024e-01   1.3612916e-01  -1.7874299e-01  -5.4103685e-01   5.9663777e-02   2.8106044e-01  -2.4874202e-01  -3.5986811e-03  -1.0644623e-01  -2.2815193e-01
   7.9575155e-03  -2.5763253e-02   2.0030981e-02  -1.0495013e-01   3.8972062e-03  -2.8965430e-02   1.7256375e-01   3.8110798e-02   1.6298891e-01  -1.0675866e-01   1.7515106e-02  -2.5451840e-01  -1.4987069e-01  -1.5873742e-01   2.2021405e-02  -2.2444098e-01  -8.1293815e-02  -9.7212936e-02  -2.1338492e-01  -1.8507930e-01   7.8413541e-02  -2.6100666e-02   4.3992500e-02  -2.9091764e-01  -1.4789625e-01  -2.3085779e-01  -2.1848207e-01
   2.0205573e-03   1.4187269e-03   5.3673923e-02  -7.3016681e-02  -8.9950731e-02   1.5165608e-02   4.2342950e-02   1.8744144e-02  -1.2451144e-01  -6.8334412e-03   5.7835118e-02  -4.4566772e-02  -5.4347468e-02  -2.2001270e-02   2.1828325e-01  -6.8749794e-02   4.9764711e-02   4.7472723e-02  -1.2994738e-01   2.0237547e-02   1.2302822e-01  -4.1437992e-01  -4.2989263e-01  -1.4669674e-01  -5.4516716e-02  -2.6080962e-01   6.7743607e-01
   1.8611092e-02  -2.0763223e-02   3.2754978e-02  -2.3608303e-02  -8.4480251e-02   1.7435756e-02   7.0696952e-02  -4.7022293e-02  -1.6596720e-01   2.1351616e-02   9.0841732e-02  -1.7443614e-01  -8.7673071e-02   9.3445478e-02  -1.6402427e-01   1.1670095e-01   6.8279355e-03   1.0294144e-01   4.9511410e-02  -5.9138640e-02   2.6645043e-01   3.4653012e-01  -2.0740394e-02   1.6224786e-01  -1.7140061e-01   8.8041595e-02   5.0722456e-02
   9.6251846e-03  -7.6950239e-03  -2.4181454e-02  -3.1605120e-02  -2.0371894e-02  -2.7471795e-02  -3.2027187e-02  -4.0601661e-02  -3.8865781e-02  -9.6219605e-02  -9.7675848e-02   1.2799766e-01   2.7820966e-01   1.0959438e-01   5.8243450e-02   1.0210198e-01  -8.2852356e-02  -5.0589719e-03   1.7809098e-01  -5.3304677e-02  -2.3378507e-02  -1.4464428e-01   9.5432428e-02  -1.0529789e-01   1.1415039e-01   1.0934226e-03  -7.8756178e-02
   9.1746765e-03   1.0284778e-02  -1.8735082e-02  -8.4440631e-02  -5.1748766e-02  -3.5351077e-02  -8.1670860e-03  -3.5890784e-02   8.6199991e-02  -2.4290870e-02   7.7478052e-02   4.7236120e-02   5.1134717e-02  -3.2652599e-02   6.5388073e-02  -6.1351697e-02  -1.2047459e-01   1.1799330e-02   4.1776749e-03  -1.6871456e-01   1.1697348e-03  -6.8292636e-02  -3.8890743e-02   3.7646608e-02   3.6165889e-02  -2.5517173e-02  -4.5656474e-02
   9.7640837e-04  -7.3027192e-03   9.6696761e-03   3.8415547e-02  -5.5649821e-03   2.2262083e-02  -3.6247216e-02  -6.5821120e-03  -7.5986574e-02  -1.1321470e-02   5.8343164e-03   9.6044515e-02  -8.1335653e-02   3.9742565e-02  -7.4150362e-02   6.5096872e-02   7.2209950e-02  -8.9408990e-02  -5.5501395e-02  -2.5538370e-02   2.6248391e-02  -4.7762664e-02  -1.0015048e-02  -6.3484182e-02   6.0034232e-03  -1.3268384e-02  -6.2894351e-02
   2.8802549e-03   5.7587347e-03   4.5529727e-02  -7.3473588e-03  -1.8905859e-02   5.5144973e-03  -6.9309056e-02  -1.5219491e-02   2.8889210e-02  -3.8024345e-02  -8.2727192e-02   2.3400767e-02  -3.3496057e-02  -1.0819626e-01   1.8068315e-01   4.3103876e-02   4.0428467e-02  -3.8995971e-02  -1.1232654e-02  -1.5696024e-01  -1.7117490e-01   1.4893343e-02  -2.5950423e-02  -1.1118912e-01  -1.5026091e-01   1.9858106e-01   2.4827106e-01
   8.6873987e-04  -1.5790086e-02  -2.0091012e-02  -1.7558517e-02   1.2304827e-02  -3.7605928e-02   4.7081843e-02   4.8354945e-03  -2.4524525e-02  -1.3141445e-01  -1.0088410e-01   1.3202287e-02   4.7161877e-02  -3.1590050e-02   7.4745346e-02   2.0956799e-01  -5.7067653e-02  -9.4713233e-02   4.5740413e-02  -1.4683778e-01   1.9305993e-01   1.8113895e-01  -2.8461256e-01   3.3788824e-01  -4.6237382e-03   4.4358663e-02  -2.8068469e-01
   4.7839674e-03   5.4489721e-03  -1.9443737e-02   8.1550479e-03   3.8749172e-02  -4.2580420e-02   4.3850524e-02   3.8292124e-02   4.5236059e-02  -8.7632830e-03   5.6355595e-02   1.4256108e-01  -1.5050563e-02   6.1134444e-04  -6.5785276e-02  -6.3042537e-02  -1.5467740e-02   8.7982134e-02   1.9349895e-01  -2.0879098e-01   2.0920935e-01   1.2010802e-01  -8.0607958e-03  -4.1688791e-02   8.0544124e-02  -1.2350099e-01   1.1780462e-01
   9.8393139e-03   4.2319499e-03   5.4727288e-02  -1.3355729e-02  -4.5617226e-02   1.8637631e-02   2.1306130e-02  -6.6799716e-02   1.0094003e-01   2.1192074e-01   3.0156128e-02   6.7680912e-02  -4.6859748e-02   2.7877142e-02   3.0037630e-02  -3.6530518e-01   9.0828576e-02  -1.1286959e-01   1.2561204e-01  -1.4739394e-01  -5.4287179e-01   5.6711974e-02   2.1017687e-01  -1.9820608e-01   6.6320683e-03  -1.3421800e-01  -1.4612651e-01
   6.7667019e-03  -2.8373563e-02   2.3703085e-02  -9.1563123e-02   2.1931920e-03  -1.7898610e-02   1.6533777e-01   2.9724390e-02   1.3778155e-01  -1.1573964e-01   2.0723216e-02  -2.1246630e-01  -1.8248492e-01  -1.1982629e-01   3.7299710e-03  -2.0229529e-01  -5.4790221e-02  -1.1377816e-01  -2.1386138e-01  -2.1042965e-01   9.4700902e-02  -4.9355482e-02   9.6075811e-02  -3.1168236e-01  -1.7990591e-01  -2.5443860e-01  -2.2321190e-01
   3.5690652e-03  -1.2547247e-03   4.9641139e-02  -7.0550133e-02  -7.9632108e-02   1.0488811e-02   4.2183913e-02   2.0447030e-02  -1.1076882e-01  -5.1341789e-03   5.6038570e-02  -2.3324522e-02  -3.0421284e-02  -2.3533919e-02   2.2179820e-01  -2.3193391e-02   4.2680892e-02   5.8164724e-02  -8.5720459e-02  -4.7301835e-04   1.6395572e-01  -4.4707751e-01  -3.9917735e-01  -1.7602750e-01  -6.2499923e-02  -2.5509455e-01   6.8715739e-01
   2.0485243e-02  -2.2408687e-02   3.2639479e-02  -2.5900208e-02  -8.5551246e-02   1.5351314e-02   6.9449545e-02  -5.8911978e-02  -1.5704981e-01   8.9314467e-03   9.6128498e-02  -1.6660859e-01  -1.1429842e-01   7.7494814e-02  -1.4578043e-01   1.3799377e-01   4.2448699e-02   1.1951209e-01   2.9522349e-02  -5.8439869e-02   2.8180671e-01   3.4802553e-01  -3.3163736e-02   2.2927901e-01  -1.9970443e-01   2.9197364e-02   6.3923268e-02
   1.1539228e-02  -1.1952557e-02  -2.4048755e-02  -2.8451584e-02  -1.1330590e-02  -2.3674827e-02  -3.9118994e-02  -4.6325292e-02  -3.6451907e-02  -8.2304939e-02  -8.5127941e-02   1.4170173e-01   2.7446594e-01   8.4401857e-02   2.4178099e-02   1.3471650e-01  -7.9975920e-02  -5.9628248e-02   2.0170438e-01  -1.5555205e-02   1.5678292e-02  -1.2019541e-01   1.4577855e-01  -1.1182890e-01   9.5842124e-02  -2.9610209e-03  -7.6432919e-02
   8.7265551e-03   9.9153103e-03  -1.7418098e-02  -7.3801544e-02  -4.2007055e-02  -3.7332169e-02   1.4385940e-03  -1.9727844e-02   9.2508223e-02  -9.2217417e-03   6.2517292e-02   1.2116478e-02   4.0753085e-02  -6.0106742e-02   5.5764192e-02  -2.9167174e-02  -8.8176478e-02   9.6128130e-02   1.6451513e-02  -1.2054185e-01   1.2652448e-02  -4.9724890e-02   4.0581433e-02   8.9855075e-03   3.0070237e-02   4.2530710e-03  -7.3930023e-02
   7.3581604e-04  -3.2425155e-03   1.0890660e-02   2.8340310e-02  -1.5995525e-02   1.6975125e-02  -3.8897222e-02  -1.3327117e-02  -6.6087278e-02   7.9711028e-03   2.1872009e-02   1.0330995e-01  -5.8013421e-02   7.6221671e-02  -2.5181071e-02   1.2506390e-03   3.9176467e-02  -4.0571600e-02  -1.7282563e-02  -5.5853568e-02   5.4517528e-02  -1.2846266e-01  -2.6193472e-02   7.4765008e-03  -2.2956255e-02   5.4407387e-02  -5.8467143e-02
   1.3207151e-03   6.9295243e-03   5.1686075e-02  -5.1477107e-03  -2.8140190e-02   1.2234378e-02  -6.9473001e-02  -1.3898224e-02   2.9633841e-02  -4.3255842e-02  -4.7348605e-02   7.4183620e-03  -1.1241797e-02  -8.6463730e-02   1.6122803e-01   4.8725901e-02   4.9678029e-02  -3.9984234e-02  -2.6774355e-02  -1.9203375e-01  -1.4626128e-01  -3.9089363e-02   2.5400813e-02  -1.1167578e-01  -2.2240794e-01   2.3931747e-01   3.1324784e-01
   1.7822423e-03  -2.3656440e-02  -1.5337526e-02  -1.8786367e-02   2.1968596e-02  -3.1995213e-02   3.7042660e-02  -1.7223341e-03  -1.3662713e-02  -1.1731515e-01  -9.9046381e-02  -8.9448183e-03   4.9981155e-02  -4.3533655e-02   4.9244959e-02   1.4100902e-01  -2.8626126e-02  -1.4753795e-01   1.1321004e-01  -2.4616184e-01   1.3594062e-01   1.9591498e-01  -3.2055640e-01   2.9644697e-01  -4.2878643e-03  -5.5506492e-03  -2.3178003e-01
   3.4010669e-03   8.2355557e-03  -2.1122162e-02   1.0332132e-02   3.4997980e-02  -4.0927951e-02   4.3754574e-02   3.4185439e-02   4.5614739e-02  -3.0950467e-02   8.7981879e-02   1.2114844e-01   3.4874995e-03   3.0984101e-02  -5.0331160e-02  -4.0529775e-02  -6.0686743e-02   8.9912065e-02   1.6022443e-01  -2.3942728e-01   1.8136126e-01   9.4094774e-02   9.4731802e-03   6.5979695e-02   5.8511843e-02  -9.1231133e-02   1.0086266e-01
   1.2633388e-02   2.9652257e-03   5.6321910e-02  -1.1033619e-02  -5.0114998e-02   1.8732725e-02   1.4378705e-02  -6.0634655e-02   8.6728229e-02   1.9274183e-01   2.2958048e-02   2.8049338e-02  -4.2745076e-02   2.5831902e-02   4.9707709e-02  -3.5698922e-01   9.3608794e-02  -1.0001058e-01   1.0411756e-01  -1.1324616e-01  -5.1378795e-01   5.1651990e-02   1.4797033e-01  -1.4895911e-01   1.3708057e-02  -1.4418604e-01  -4.6633691e-02
   5.4800311e-03  -3.0856143e-02   2.6342770e-02  -7.8905021e-02   8.7372984e-04  -6.8251718e-03   1.5642851e-01   2.0103295e-02   1.1311296e-01  -1.2311035e-01   2.4801135e-02  -1.7211562e-01  -2.0863614e-01  -8.3450589e-02  -1.4554889e-02  -1.7853344e-01  -2.8905352e-02  -1.2752270e-01  -2.0930545e-01  -2.2426162e-01   1.0555836e-01  -6.3192274e-02   1.5352657e-01  -3.2529045e-01  -2.0793068e-01  -2.6840413e-01  -2.2072098e-01
   4.5776409e-03  -3.6148289e-03   4.6231061e-02  -6.7349171e-02  -6.8480833e-02   4.4510192e-03   4.3999680e-02   2.2389224e-02  -9.8659559e-02  -3.7897622e-04   5.4794218e-02  -5.2775800e-03  -1.4257101e-02  -2.4870007e-02   2.1601700e-01   1.9533013e-02   3.2169982e-02   6.8296311e-02  -3.4169806e-02  -1.7779634e-02   1.9811033e-01  -4.5995740e-01  -3.5906191e-01  -2.0808604e-01  -6.9277790e-02  -2.4433455e-01   6.6008272e-01
   2.1782316e-02  -2.3621544e-02   3.3560458e-02  -2.9978725e-02  -8.6516138e-02   1.4165904e-02   6.6118182e-02  -7.1891476e-02  -1.4983415e-01  -5.4152374e-03   9.7834792e-02  -1.5348295e-01  -1.3283644e-01   6.2251753e-02  -1.2300883e-01   1.5240364e-01   7.5873272e-02   1.2768739e-01   1.0787703e-02  -6.2137088e-02   2.8863061e-01   3.4381039e-01  -4.9254895e-02   2.9085251e-01  -2.3075282e-01  -3.5856005e-02   7.9593615e-02
   1.2312494e-02  -1.5454679e-02  -2.2703786e-02  -2.2764025e-02  -4.1378391e-03  -1.9162547e-02  -4.3939647e-02  -4.7849158e-02  -3.7342542e-02  -7.4754652e-02  -8.1122090e-02   1.3922525e-01   2.7647269e-01   6.5385808e-02  -3.4525814e-03   1.5810304e-01  -6.3463829e-02  -9.1732747e-02   2.0589732e-01   1.3853609e-02   4.5657190e-02  -8.4917175e-02   1.8826523e-01  -1.0119041e-01   6.9293647e-02   6.8498123e-03  -9.2672685e-02
   7.8325136e-03   7.9435611e-03  -1.5742635e-02  -6.2793195e-02  -2.8026991e-02  -3.7380684e-02   9.5261822e-03  -5.4807433e-03   9.5624332e-02   5.0350515e-03   5.0595259e-02  -2.0598773e-02   3.2171258e-02  -8.8463720e-02   4.4610760e-02  -4.7645505e-03  -5.9267564e-02   1.5049055e-01   2.2453234e-02  -5.8726518e-02   2.3047882e-02  -2.2281481e-02   1.0093484e-01  -1.5892024e-02   2.0860394e-02   2.9807698e-02  -8.4163112e-02
   8.3994275e-04   9.0914072e-04   1.1412204e-02   2.1789676e-02  -2.5571491e-02   1.0867493e-02  -4.0801341e-02  -1.7906155e-02  -5.9460642e-02   2.0216791e-02   3.3607072e-02   1.1372516e-01  -3.3389340e-02   1.0048450e-01   1.2261305e-02  -4.5648895e-02   1.4448463e-02   5.9699142e-03   2.1703406e-02  -7.9850175e-02   7.5251059e-02  -1.8582692e-01  -4.6200910e-02   6.3036476e-02  -4.7329418e-02   1.0325206e-01  -4.4153103e-02
  -3.3552098e-04   7.2985651e-03   5.4890924e-02  -2.6972638e-03  -3.2912306e-02   1.8120217e-02  -6.6116418e-02  -1.2156080e-02   3.1495583e-02  -4.1890607e-02  -2.1026456e-02  -1.3309223e-02   7.9262717e-03  -6.5514790e-02   1.3343943e-01   5.9508688e-02   5.0765649e-02  -4.0424607e-02  -5.1326779e-02  -1.9807726e-01  -1.1929521e-01  -8.4543741e-02   6.2440818e-02  -1.0573362e-01  -2.7637966e-01   2.6978504e-01   3.5298146e-01
   1.8279060e-03  -2.8513223e-02  -1.0904153e-02  -1.8650397e-02   3.0789917e-02  -2.4944278e-02   2.5024519e-02  -7.8856457e-03  -4.2436080e-03  -1.0032808e-01  -9.1702327e-02  -2.7234770e-02   4.8136083e-02  -4.9164796e-02   2.3541826e-02   7.4774743e-02  -6.5895494e-03  -1.8932584e-01   1.5995781e-01  -3.1858890e-01   8.6743513e-02   2.0014485e-01  -3.4029675e-01   2.5520506e-01  -7.6783550e-03  -5.0418254e-02  -1.7863476e-01
   2.2116193e-03   1.0346818e-02  -2.3873317e-02   1.3165672e-02   3.2928855e-02  -3.9238288e-02   4.2911744e-02   2.9731903e-02   4.6030447e-02  -4.7912838e-02   1.0642239e-01   9.2887877e-02   1.6763794e-02   5.5816328e-02  -4.3053433e-02  -1.0511896e-02  -1.0613026e-01   8.8975112e-02   1.1756581e-01  -2.4378091e-01   1.4559126e-01   6.7428656e-02   2.3571771e-02   1.6397517e-01   4.8769987e-02  -7.0258024e-02   7.3865294e-02
   1.4999688e-02   3.6114210e-03   5.6687811e-02  -8.2235215e-03  -5.2757247e-02   2.0547013e-02   6.9327564e-03  -5.3519999e-02   6.9077293e-02   1.6940881e-01   1.7777315e-02  -5.7615330e-03  -4.0670547e-02   2.2512818e-02   6.8670509e-02  -3.2968612e-01   9.4052064e-02  -7.7007840e-02   7.3413743e-02  -7.8021364e-02  -4.5806837e-01   4.6159852e-02   9.9394551e-02  -1.0705970e-01   1.9353227e-02  -1.3401242e-01   6.1144128e-02
   4.1546550e-03  -3.3121729e-02   2.7974066e-02  -6.6710247e-02  -1.6891121e-04   3.9846887e-03   1.4596599e-01   9.5236431e-03   8.8901708e-02  -1.2835229e-01   2.9278434e-02  -1.3342365e-01  -2.2819477e-01  -4.9445815e-02  -3.2683411e-02  -1.5435508e-01  -3.8196502e-03  -1.3892741e-01  -1.9951569e-01  -2.2645492e-01   1.1035346e-01  -6.8767188e-02   2.1307326e-01  -3.3106042e-01  -2.3018664e-01  -2.7234291e-01  -2.1152914e-01
   5.0553089e-03  -5.6759256e-03   4.3452009e-02  -6.3724093e-02  -5.6842032e-02  -2.6729322e-03   4.6950881e-02   2.4521872e-02  -8.7771323e-02   6.7384121e-03   5.3830630e-02   9.6182752e-03  -5.4111912e-03  -2.6646183e-02   2.0168350e-01   5.8038388e-02   1.9354799e-02   7.5066179e-02   2.3906333e-02  -3.0355579e-02   2.2570203e-01  -4.5629522e-01  -3.1031213e-01  -2.4048846e-01  -7.4587013e-02  -2.2994375e-01   5.9879332e-01
   2.2420672e-02  -2.4244589e-02   3.5522052e-02  -3.5531809e-02  -8.7323002e-02   1.4028323e-02   6.0907158e-02  -8.5205687e-02  -1.4343672e-01  -2.0820368e-02   9.6660722e-02  -1.3649299e-01  -1.4429376e-01   4.7802815e-02  -9.6601754e-02   1.5891653e-01   1.0602593e-01   1.2765213e-01  -7.1348807e-03  -7.1690153e-02   2.8886674e-01   3.3284792e-01  -6.7076654e-02   3.4562198e-01  -2.6319615e-01  -1.0306352e-01   9.7488906e-02
   1.1992014e-02  -1.7809302e-02  -2.0534937e-02  -1.5743895e-02   5.6907967e-04  -1.4692252e-02  -4.5881876e-02  -4.6391497e-02  -4.1290689e-02  -7.3705905e-02  -8.5226564e-02   1.2214273e-01   2.8090492e-01   5.5700577e-02  -2.2244851e-02   1.6999260e-01  -3.7649292e-02  -9.9176506e-02   1.9334592e-01   3.2102609e-02   6.2042887e-02  -3.9881193e-02   2.1731817e-01  -7.5618472e-02   4.1752044e-02   2.6479149e-02  -1.2386947e-01
   6.6241362e-03   4.7014971e-03  -1.4022670e-02  -5.3129735e-02  -1.2347006e-02  -3.5695711e-02   1.4978225e-02   5.1912650e-03   9.5147912e-02   1.4939395e-02   4.2235602e-02  -4.6711769e-02   2.5918442e-02  -1.1372682e-01   3.3084098e-02   9.5797686e-03  -3.6571073e-02   1.6859380e-01   1.9133833e-02   4.9671561e-03   2.9204096e-02   1.0895315e-02   1.3199054e-01  -3.6521099e-02   1.0776723e-02   4.5718743e-02  -7.9640123e-02
   1.2103137e-03   4.4072103e-03   1.1249947e-02   1.9541804e-02  -3.2558947e-02   5.1286199e-03  -4.1939566e-02  -1.9486818e-02  -5.6979231e-02   2.4782903e-02   3.9739405e-02   1.2471297e-01  -1.2457815e-02   1.0991709e-01   3.3155620e-02  -6.8382389e-02   5.1801656e-04   4.4340629e-02   5.5492214e-02  -9.4718669e-02   8.6591407e-02  -2.1356071e-01  -6.4276117e-02   9.3961069e-02  -6.1829030e-02   1.2765110e-01  -2.5488528e-02
  -1.8476398e-03   7.0323509e-03   5.4890337e-02  -2.3756043e-04  -3.3094572e-02   2.2470847e-02  -5.9808945e-02  -1.0303676e-02   3.3799786e-02  -3.4943514e-02  -5.1923430e-03  -3.6466387e-02   2.2606853e-02  -4.6927554e-02   9.9857047e-02   7.3841120e-02   4.4789135e-02  -3.7816135e-02  -8.1612137e-02  -1.7721010e-01  -9.3690863e-02  -1.1726304e-01   8.3705002e-02  -9.3557485e-02  -3.1211863e-01   2.8883050e-01   3.6758076e-01
   1.1442916e-03  -3.0319980e-02  -6.9745473e-03  -1.7293070e-02   3.8069538e-02  -1.7014786e-02   1.2106721e-02  -1.3726428e-02   3.1328089e-03  -8.1939194e-02  -7.9816281e-02  -4.0334810e-02   4.1639528e-02  -4.8586222e-02  -1.4363350e-03   1.4682480e-02   7.9398441e-03  -2.1889560e-01   1.8710003e-01  -3.6073190e-01   4.6637031e-02   1.9492848e-01  -3.4398001e-01   2.1515480e-01  -1.2121801e-02  -8.9834329e-02  -1.2443034e-01
   1.2683507e-03   1.1572127e-02  -2.7375804e-02   1.6476444e-02   3.2374921e-02  -3.7684201e-02   4.1192541e-02   2.5064666e-02   4.6247795e-02  -5.9570451e-02   1.1232234e-01   6.0929063e-02   2.4861259e-02   7.3982627e-02  -4.2480101e-02   2.5826330e-02  -1.4923261e-01   8.4848846e-02   6.8890496e-02  -2.2342211e-01   1.0500486e-01   4.2410075e-02   3.4069076e-02   2.4621559e-01   5.1489018e-02  -6.2543769e-02   4.1638139e-02
   1.6811482e-02   5.7288462e-03   5.5821689e-02  -5.0849802e-03  -5.3178758e-02   2.3435190e-02  -3.5252027e-04  -4.6493014e-02   4.9388568e-02   1.4379632e-01   1.3976448e-02  -3.0558139e-02  -4.0413857e-02   1.7786227e-02   8.3931167e-02  -2.8524745e-01   9.2150215e-02  -4.8125914e-02   3.5691408e-02  -4.2822858e-02  -3.8098689e-01   4.1584351e-02   6.6396127e-02  -7.6484733e-02   2.4850249e-02  -1.0344594e-01   1.6698596e-01
   2.8569625e-03  -3.5065397e-02   2.8642486e-02  -5.4729096e-02  -1.1167988e-03   1.4225084e-02   1.3410042e-01  -1.6975199e-03   6.5081728e-02  -1.3117986e-01   3.3678838e-02  -9.6181552e-02  -2.4101743e-01  -1.7677291e-02  -5.0416912e-02  -1.3083457e-01   2.0352887e-02  -1.4856599e-01  -1.8464376e-01  -2.1758223e-01   1.0873444e-01  -6.7594256e-02   2.7101970e-01  -3.2854431e-01  -2.4536967e-01  -2.6650254e-01  -1.9633838e-01
   5.0332769e-03  -7.4284926e-03   4.1299179e-02  -5.9949653e-02  -4.5106549e-02  -1.0523608e-02   5.0195136e-02   2.6731898e-02  -7.7724884e-02   1.5523125e-02   5.2870598e-02   2.1519353e-02  -3.0548757e-03  -2.9448245e-02   1.7957016e-01   9.1196408e-02   5.3621428e-03   7.5982001e-02   8.7203211e-02  -3.7414908e-02   2.4713609e-01  -4.3942368e-01  -2.5389861e-01  -2.7046529e-01  -7.8795279e-02  -2.1318140e-01   5.0725768e-01
   2.2349752e-02  -2.4139885e-02   3.8441309e-02  -4.2171029e-02  -8.7867348e-02   1.4971986e-02   5.4184895e-02  -9.8107647e-02  -1.3712759e-01  -3.6367217e-02   9.3146218e-02  -1.1724321e-01  -1.4991853e-01   3.4175289e-02  -6.7600813e-02   1.5733138e-01   1.3182743e-01   1.2003385e-01  -2.4644773e-02  -8.7674866e-02   2.8417657e-01   3.1467952e-01  -8.4457217e-02   3.9201181e-01  -2.9498749e-01  -1.6830932e-01   1.1632227e-01
   1.0841725e-02  -1.8964712e-02  -1.8022033e-02  -8.6263927e-03   2.8594119e-03  -1.0911737e-02  -4.5353323e-02  -4.3629583e-02  -4.7335963e-02  -7.7754131e-02  -9.5265046e-02   9.4865617e-02   2.8483061e-01   5.5849640e-02  -3.1379031e-02   1.7005889e-01  -7.8275466e-03  -8.5358892e-02   1.6921418e-01   4.0314915e-02   6.3843214e-02   1.1433276e-02   2.2903619e-01  -3.9451889e-02   1.9261988e-02   5.1757346e-02  -1.6277627e-01
   5.2146762e-03   7.4694179e-04  -1.2364363e-02  -4.5939435e-02   2.4796984e-03  -3.2450151e-02   1.7535573e-02   1.1543655e-02   9.1094149e-02   1.7982639e-02   3.6834695e-02  -6.4491466e-02   2.1134871e-02  -1.3254145e-01   2.2463079e-02   1.3416360e-02  -1.9961218e-02   1.5294592e-01   4.9421658e-03   6.0082720e-02   2.9675681e-02   4.5773101e-02   1.3184578e-01  -5.3650362e-02   2.5767756e-03   4.9425684e-02  -6.5416850e-02
   1.6942782e-03   6.7460052e-03   1.0378593e-02   2.1359642e-02  -3.5553724e-02   8.3932990e-04  -4.2166622e-02  -1.7995834e-02  -5.8375638e-02   2.3385304e-02   4.0120767e-02   1.3313823e-01   7.4853393e-04   1.0553574e-01   3.6124250e-02  -6.5520112e-02  -3.8309168e-03   7.0930839e-02   8.0072524e-02  -9.9098241e-02   8.7563851e-02  -2.1114680e-01  -7.4766904e-02   9.7689849e-02  -6.3004396e-02   1.2733475e-01  -9.2458779e-03
  -3.0197608e-03   6.2913977e-03   5.1769484e-02   1.9155504e-03  -2.9061738e-02   2.4811487e-02  -5.1135160e-02  -8.6719086e-03   3.5843219e-02  -2.3948019e-02   2.6147287e-04  -5.9358163e-02   3.2062127e-02  -3.1571491e-02   6.3657901e-02   8.9229134e-02   3.3387426e-02  -3.0407795e-02  -1.1347600e-01  -1.3404177e-01  -7.1873372e-02  -1.3482764e-01   8.9121613e-02  -7.5842396e-02  -3.3140267e-01   2.9565476e-01   3.5875719e-01
  -5.3409709e-05  -2.9366935e-02  -3.6537765e-03  -1.4980612e-02   4.3295635e-02  -8.8745667e-03  -6.7441676e-04  -1.9390154e-02   8.1133957e-03  -6.3369789e-02  -6.4685280e-02  -4.7340140e-02   3.1032227e-02  -4.2461009e-02  -2.4964076e-02  -3.6748138e-02   1.4692958e-02  -2.3636440e-01   1.9739639e-01  -3.7184096e-01   1.5464312e-02   1.8169855e-01  -3.3332381e-01   1.7699166e-01  -1.5691941e-02  -1.2437660e-01  -7.2043731e-02
   5.9605327e-04   1.1832828e-02  -3.1219764e-02   1.9944403e-02   3.2884208e-02  -3.6410747e-02   3.8484071e-02   2.0288627e-02   4.5946338e-02  -6.6458831e-02   1.0734875e-01   2.8507551e-02   2.8452917e-02   8.5138207e-02  -4.6711340e-02   6.6384497e-02  -1.8768510e-01   7.7172874e-02   1.7655395e-02  -1.8233833e-01   6.2607862e-02   2.0320685e-02   4.0594920e-02   3.0861765e-01   6.5826598e-02  -6.8447261e-02   9.0393171e-03
   1.8006072e-02   8.6985266e-03   5.3796924e-02  -1.8739809e-03  -5.1200869e-02   2.6619474e-02  -6.9622229e-03  -4.0227585e-02   2.9130633e-02   1.1735308e-01   1.0892476e-02  -4.4109629e-02  -4.1336896e-02   1.1856717e-02   9.3026902e-02  -2.2647180e-01   8.7750360e-02  -1.8639936e-02  -6.6520718e-03  -8.4107591e-03  -2.8843322e-01   3.8823516e-02   4.8142042e-02  -5.8804031e-02   3.0806416e-02  -5.4044522e-02   2.6046372e-01
   1.6573517e-03  -3.6570698e-02   2.8419363e-02  -4.2719985e-02  -2.2018896e-03   2.3582432e-02   1.2100499e-01  -1.3199198e-02   4.1600924e-02  -1.3152828e-01   3.7546692e-02  -6.0088832e-02  -2.4704055e-01   1.1964851e-02  -6.7438527e-02  -1.0878701e-01   4.3595330e-02  -1.5691997e-01  -1.6514897e-01  -1.9887357e-01   1.0066510e-01  -6.1461857e-02   3.2358443e-01  -3.1763700e-01  -2.5267485e-01  -2.5175384e-01  -1.7602794e-01
   4.5587141e-03  -8.8326423e-03   3.9746639e-02  -5.6261314e-02  -3.3712774e-02  -1.8680147e-02   5.2980923e-02   2.8845907e-02  -6.8225993e-02   2.5239875e-02   5.1570730e-02   3.0596079e-02  -6.0424275e-03  -3.3671156e-02   1.5051180e-01   1.1815589e-01  -8.7058290e-03   6.9216983e-02   1.5386509e-01  -3.8837127e-02   2.6288477e-01  -4.1251646e-01  -1.9102541e-01  -2.9501784e-01  -8.2735159e-02  -1.9515286e-01   3.9055105e-01
   2.1556365e-02  -2.3202572e-02   4.2147165e-02  -4.9457651e-02  -8.7999050e-02   1.6919828e-02   4.6446026e-02  -1.0989120e-01  -1.3033839e-01  -5.1128470e-02   8.7718596e-02  -9.7355301e-02  -1.5113913e-01   2.1295522e-02  -3.7175220e-02   1.4825144e-01   1.5227198e-01   1.0574696e-01  -4.1980653e-02  -1.0981451e-01   2.7594316e-01   2.8939522e-01  -9.9147168e-02   4.2831185e-01  -3.2353509e-01  -2.2770016e-01   1.3414926e-01
   9.2668889e-03  -1.9131575e-02  -1.5641291e-02  -2.4335047e-03   3.2282289e-03  -8.3602099e-03  -4.3518335e-02  -4.1176358e-02  -5.4081256e-02  -8.4636828e-02  -1.0807427e-01   6.3369994e-02   2.8657979e-01   6.4072469e-02  -3.1306085e-02   1.5969753e-01   2.0774378e-02  -5.7019728e-02   1.3947658e-01   4.2094269e-02   5.3126076e-02   6.3626926e-02   2.2156980e-01   2.1234224e-03   5.1895664e-03   7.9297452e-02  -2.0102303e-01
   3.7194592e-03  -3.2502468e-03  -1.0734509e-02  -4.1835484e-02   1.4252255e-02  -2.7803106e-02   1.7622351e-02   1.3504563e-02   8.4002749e-02   1.3156890e-02   3.3319171e-02  -7.4101755e-02   1.6195527e-02  -1.4247810e-01   1.3975681e-02   7.7043777e-03  -7.6182373e-03   1.1232623e-01  -1.9656986e-02   9.8699572e-02   2.5026720e-02   7.7576716e-02   1.0593477e-01  -6.8283691e-02  -1.1067501e-03   4.0776944e-02  -4.6554816e-02
   2.1242352e-03   7.6924687e-03   8.7440640e-03   2.6266630e-02  -3.3733976e-02  -1.2487550e-03  -4.1347467e-02  -1.4005077e-02  -6.2615254e-02   1.9102427e-02   3.5581485e-02   1.3636984e-01   3.7456395e-03   9.0799106e-02   2.2851135e-02  -4.0317662e-02  -2.2440827e-03   8.4142681e-02   9.3973697e-02  -9.2964973e-02   7.7908053e-02  -1.8222318e-01  -7.3615865e-02   7.7275598e-02  -4.9466653e-02   1.0638070e-01  -1.1174011e-03
  -3.7104498e-03   5.2274267e-03   4.5896197e-02   3.3972890e-03  -2.1596503e-02   2.4907130e-02  -4.0699201e-02  -7.5784057e-03   3.7001284e-02  -1.0698072e-02  -3.2999263e-03  -7.9199707e-02   3.6213518e-02  -1.9688286e-02   2.8240598e-02   1.0257732e-01   1.8471803e-02  -1.7528413e-02  -1.4230188e-01  -7.5122767e-02  -5.5293483e-02  -1.3675967e-01   7.9877782e-02  -5.3662872e-02  -3.3743913e-01   2.9004630e-01   3.2926752e-01
  -1.5024409e-03  -2.6187926e-02  -9.7111865e-04  -1.2037098e-02   4.6112831e-02  -1.1949156e-03  -1.2394164e-02  -2.5012433e-02   1.0543959e-02  -4.5576433e-02  -4.7766781e-02  -4.7968073e-02   1.7302789e-02  -3.1940013e-02  -4.6335378e-02  -7.8283368e-02   1.4308744e-02  -2.4270476e-01   1.9458101e-01  -3.5372633e-01  -8.0171384e-03   1.6198754e-01  -3.1106070e-01   1.4119782e-01  -1.7399300e-02  -1.5525020e-01  -2.3870908e-02
   1.9326262e-04   1.1181919e-02  -3.4957641e-02   2.3148105e-02   3.3819863e-02  -3.5523085e-02   3.4706831e-02   1.5502406e-02   4.4836578e-02  -6.9492889e-02   9.3871906e-02  -1.2734218e-03   2.8614470e-02   8.9556795e-02  -5.3699574e-02   1.0839447e-01  -2.1952527e-01   6.5488649e-02  -3.2725374e-02  -1.2638484e-01   2.1186145e-02   1.4144066e-03   4.2619539e-02   3.4894485e-01   9.0384884e-02  -8.6744814e-02  -1.9637235e-02
   1.8571742e-02   1.1824491e-02   5.0750104e-02   1.0812827e-03  -4.6853240e-02   2.9281830e-02  -1.2566829e-02  -3.5044112e-02   9.7667431e-03   9.1112143e-02   7.9520686e-03  -4.5247813e-02  -4.2508829e-02   5.2721954e-03   9.4316812e-02  -1.5698466e-01   8.0670863e-02   5.8695342e-03  -5.1175559e-02   2.4526723e-02  -1.8658217e-01   3.8268253e-02   4.1615560e-02  -5.3204574e-02   3.7137981e-02   1.1196152e-02   3.3187179e-01
   6.2444621e-04  -3.7516253e-02   2.7403085e-02  -3.0445859e-02  -3.6714805e-03   3.1768281e-02   1.0687613e-01  -2.4586806e-02   1.8419544e-02  -1.2950911e-01   4.0481790e-02  -2.4828752e-02  -2.4637123e-01   3.9582084e-02  -8.3374520e-02  -8.8672470e-02   6.5978726e-02  -1.6424729e-01  -1.4172180e-01  -1.7212043e-01   8.6449146e-02  -5.2342234e-02   3.6725160e-01  -2.9863675e-01  -2.5177875e-01  -2.2950858e-01  -1.5162863e-01
   3.6908495e-03  -9.8203895e-03   3.8737233e-02  -5.2859414e-02  -2.3127187e-02  -2.6684467e-02   5.4717754e-02   3.0625656e-02  -5.9095889e-02   3.5109383e-02   4.9497008e-02   3.6980630e-02  -1.3022949e-02  -3.9429401e-02   1.1542422e-01   1.3836023e-01  -2.1811256e-02   5.3796890e-02   2.2154853e-01  -3.5164997e-02   2.7338170e-01  -3.7840792e-01  -1.2314453e-01  -3.1115753e-01  -8.7444665e-02  -1.7683094e-01   2.5462223e-01
   2.0067345e-02  -2.1370574e-02   4.6388998e-02  -5.6933455e-02  -8.7548796e-02   1.9693340e-02   3.8264348e-02  -1.1991892e-01  -1.2266180e-01  -6.4223358e-02   8.0745012e-02  -7.8330085e-02  -1.4946990e-01   8.9732895e-03  -6.5727169e-03   1.3299192e-01   1.6653439e-01   8.5882392e-02  -5.9147461e-02  -1.3708914e-01   2.6530414e-01   2.5754482e-01  -1.0901523e-01   4.5282315e-01  -3.4594496e-01  -2.7779929e-01   1.4878228e-01
   7.7256090e-03  -1.8659161e-02  -1.3781046e-02   2.1519940e-03   2.2695663e-03  -7.4486145e-03  -4.1879894e-02  -4.0219782e-02  -6.0049246e-02  -9.2012290e-02  -1.2028569e-01   3.3919512e-02   2.8601425e-01   7.7115360e-02  -2.3367261e-02   1.4167991e-01   4.3831682e-02  -2.1850883e-02   1.0960905e-01   4.1732361e-02   3.4132653e-02   1.1038741e-01   1.9551451e-01   4.4221214e-02  -2.9583449e-04   1.0670565e-01  -2.3111417e-01
   2.2798482e-03  -6.6403602e-03  -9.0732387e-03  -4.1014817e-02   2.1412809e-02  -2.1994669e-02   1.6040794e-02   1.1439064e-02   7.4972802e-02   1.1418137e-03   3.0744541e-02  -7.6785167e-02   9.5674216e-03  -1.4230036e-01   8.5611791e-03  -5.5569721e-03   2.5204579e-03   5.8526571e-02  -5.2143734e-02   1.1610390e-01   1.7512349e-02   1.0126285e-01   6.4659302e-02  -8.0877914e-02   1.4187577e-03   2.1318533e-02  -2.7057975e-02
   2.3680044e-03   7.2826761e-03   6.3322922e-03   3.2898923e-02  -2.7099172e-02  -8.4918080e-04  -3.9495719e-02  -8.5107428e-03  -6.8363835e-02   1.5159546e-02   2.7662031e-02   1.3311166e-01  -4.0508186e-03   7.0240007e-02  -2.6846626e-03   7.5952022e-04   1.0526570e-03   8.4406334e-02   9.8346338e-02  -7.7466915e-02   5.8233528e-02  -1.3295376e-01  -5.9317355e-02   3.9600076e-02  -2.1886158e-02   7.1874043e-02  -3.6280702e-03
  -3.8387616e-03   3.9869720e-03   3.7849046e-02   3.8413230e-03  -1.1772495e-02   2.2768352e-02  -2.9121608e-02  -7.2735358e-03   3.6815025e-02   3.0063473e-03  -1.3603334e-02  -9.3416439e-02   3.5570656e-02  -1.1054684e-02  -3.1910316e-03   1.1057430e-01   2.0133463e-03   3.0605592e-04  -1.6344682e-01  -8.2827219e-03  -4.4518555e-02  -1.2444620e-01   5.8352611e-02  -2.8406349e-02  -3.3432158e-01   2.7261586e-01   2.8242390e-01
  -2.9263677e-03  -2.1455602e-02   1.1020448e-03  -8.7719756e-03   4.6284829e-02   5.4724906e-03  -2.2286711e-02  -3.0629637e-02   1.0412888e-02  -2.9260717e-02  -3.0490434e-02  -4.2743804e-02   1.7205872e-03  -1.8581828e-02  -6.4731688e-02  -1.0980945e-01   8.3562239e-03  -2.3909510e-01   1.8270524e-01  -3.1047635e-01  -2.5830665e-02   1.3720748e-01  -2.8011599e-01   1.0795360e-01  -1.7052310e-02  -1.8386257e-01   1.8411691e-02
   3.5237354e-05   9.7943427e-03  -3.8151225e-02   2.5624590e-02   3.4470435e-02  -3.5072601e-02   2.9832661e-02   1.0834051e-02   4.2754019e-02  -6.9734573e-02   7.4633885e-02  -2.5651865e-02   2.6623026e-02   8.7918918e-02  -6.1513719e-02   1.4874456e-01  -2.4316355e-01   4.9240646e-02  -7.9010525e-02  -6.2638720e-02  -1.6801850e-02  -1.4947109e-02   3.9621420e-02   3.6653110e-01   1.2360205e-01  -1.1471304e-01  -4.1123462e-02
   1.8533897e-02   1.4435670e-02   4.6859607e-02   3.4198382e-03  -4.0380779e-02   3.0670895e-02  -1.7017237e-02  -3.0938354e-02  -7.3242786e-03   6.5732208e-02   4.7674365e-03  -3.3933339e-02  -4.2889212e-02  -1.1312220e-03   8.7159904e-02  -8.1026942e-02   7.0839166e-02   2.0318794e-02  -9.5543731e-02   5.5164374e-02  -8.1599908e-02   3.9799527e-02   4.2469533e-02  -5.6842998e-02   4.3230299e-02   8.8252144e-02   3.7313964e-01
  -1.8052225e-04  -3.7784261e-02   2.5716285e-02  -1.7674040e-02  -5.7483360e-03   3.8551068e-02   9.1929557e-02  -3.5452547e-02  -4.4927681e-03  -1.2534287e-01   4.2175356e-02   9.8660556e-03  -2.3935947e-01   6.5287802e-02  -9.7826667e-02  -7.0539507e-02   8.7617500e-02  -1.7051381e-01  -1.1518714e-01  -1.3953140e-01   6.6732217e-02  -4.2287181e-02   3.9908646e-01  -2.7225462e-01  -2.4278886e-01  -2.0159273e-01  -1.2428351e-01
   2.4992728e-03  -1.0306427e-02   3.8172591e-02  -4.9914630e-02  -1.3809404e-02  -3.4067961e-02   5.5013889e-02   3.1766399e-02  -5.0278195e-02   4.4336522e-02   4.6134143e-02   4.0751124e-02  -2.2560849e-02  -4.6529173e-02   7.5314829e-02   1.5157163e-01  -3.3013667e-02   2.9642589e-02   2.8756341e-01  -2.7483796e-02   2.7895133e-01  -3.3947640e-01  -5.1964984e-02  -3.1619803e-01  -9.3874190e-02  -1.5905149e-01   1.0608712e-01
   1.7947839e-02  -1.8629509e-02   5.0854095e-02  -6.4154606e-02  -8.6368061e-02   2.3026636e-02   3.0244552e-02  -1.2764504e-01  -1.1384363e-01  -7.4885269e-02   7.2578925e-02  -6.1443540e-02  -1.4640190e-01  -3.0797660e-03   2.2949172e-02   1.1340827e-01   1.7409149e-01   6.1646826e-02  -7.5899503e-02  -1.6790530e-01   2.5319782e-01   2.2000285e-01  -1.1226499e-01   4.6404046e-01  -3.5932255e-01  -3.1580679e-01   1.5818082e-01
   6.6432471e-03  -1.7904212e-02  -1.2683026e-02   4.7831535e-03   3.9639356e-04  -8.3955002e-03  -4.1811648e-02  -4.1391225e-02  -6.4039589e-02  -9.8146228e-02  -1.2899274e-01   1.1974127e-02   2.8423278e-01   9.1208615e-02  -9.4732799e-03   1.1971536e-01   5.8461551e-02   1.3371072e-02   8.3768806e-02   4.2492507e-02   1.2179520e-02   1.4578113e-01   1.5423109e-01   8.3134940e-02   1.9030822e-04   1.3211265e-01  -2.4763910e-01
   1.0775317e-03  -8.9097984e-03  -7.4082318e-03  -4.3345527e-02   2.3209114e-02  -1.5483938e-02   1.3634757e-02   5.9865105e-03   6.5576669e-02  -1.5833560e-02   2.8705859e-02  -7.4040253e-02   5.9177013e-04  -1.3218487e-01   6.6984733e-03  -2.3634673e-02   1.1582581e-02   3.4131054e-03  -8.8166778e-02   1.1099571e-01   1.0288173e-02   1.1232716e-01   2.0341060e-02  -9.0931214e-02   1.0296931e-02  -6.2632026e-03  -9.3761539e-03
   2.3562844e-03   5.7800792e-03   3.2730252e-03   3.9843218e-02  -1.6602133e-02   1.8374507e-03  -3.6865456e-02  -2.6746927e-03  -7.4389469e-02   1.3850948e-02   1.8294037e-02   1.2375137e-01  -2.1131798e-02   4.8333965e-02  -3.4997541e-02   4.9400653e-02   3.0035985e-03   7.4147587e-02   9.6227500e-02  -5.4801844e-02   3.0421080e-02  -7.0986873e-02  -3.3395020e-02  -6.4571524e-03   1.6873873e-02   3.2365491e-02  -1.5155996e-02
  -3.3859959e-03   2.7179554e-03   2.8339164e-02   2.9398804e-03  -8.2497765e-04   1.8643684e-02  -1.7026740e-02  -7.8801525e-03   3.5052834e-02   1.5582149e-02  -2.7855073e-02  -9.9917741e-02   3.1104890e-02  -5.1934661e-03  -2.8006174e-02   1.1013263e-01  -1.4106781e-02   2.1497411e-02  -1.7266624e-01   5.8103436e-02  -3.9368577e-02  -1.0084420e-01   2.8050678e-02  -1.7353004e-03  -3.2640717e-01   2.4498921e-01   2.2171299e-01
  -4.0690108e-03  -1.5874443e-02   2.6229262e-03  -5.4164392e-03   4.3668351e-02   1.0804909e-02  -2.9774462e-02  -3.6102349e-02   7.8067949e-03  -1.4880160e-02  -1.4089471e-02  -3.3091960e-02  -1.4374698e-02  -4.2649509e-03  -7.9167547e-02  -1.3204059e-01  -7.4774788e-04  -2.2624687e-01   1.6556585e-01  -2.4795011e-01  -4.0411240e-02   1.0850150e-01  -2.4278478e-01   7.6957669e-02  -1.4884688e-02  -2.1138318e-01   5.4062033e-02
   7.7725776e-05   7.9471846e-03  -4.0409854e-02   2.6939821e-02   3.4158547e-02  -3.5044838e-02   2.3902270e-02   6.4787532e-03   3.9722010e-02  -6.8189376e-02   5.2432462e-02  -4.2394565e-02   2.3767033e-02   8.1092097e-02  -6.8556527e-02   1.8433005e-01  -2.5736531e-01   2.7823183e-02  -1.1827160e-01   1.2878424e-03  -4.9308408e-02  -3.0048417e-02   3.1310248e-02   3.6194686e-01   1.6401605e-01  -1.4829742e-01  -5.3485826e-02
   1.7942388e-02   1.5977635e-02   4.2318908e-02   4.7969038e-03  -3.2227851e-02   3.0206275e-02  -2.0318744e-02  -2.7627710e-02  -2.0923527e-02   4.1569816e-02   1.1962402e-03  -1.1262277e-02  -4.1531932e-02  -6.3391931e-03   7.1960396e-02  -3.1690636e-03   5.8414375e-02   2.0893363e-02  -1.3767421e-01   8.2436372e-02   2.0619628e-02   4.2840627e-02   4.5971121e-02  -6.5454444e-02   4.8207776e-02   1.7247600e-01   3.7861897e-01
  -7.0855313e-04  -3.7270388e-02   2.3499238e-02  -4.1779444e-03  -8.5905650e-03   4.3781069e-02   7.6391229e-02  -4.5400580e-02  -2.7162251e-02  -1.1928016e-01   4.2439354e-02   4.4165325e-02  -2.2663786e-01   8.9223248e-02  -1.1041403e-01  -5.4007296e-02   1.0860073e-01  -1.7538864e-01  -8.6404076e-02  -1.0355492e-01   4.2473734e-02  -3.3308329e-02   4.1697109e-01  -2.3957596e-01  -2.2617273e-01  -1.7007944e-01  -9.5207436e-02
   1.0637851e-03  -1.0205700e-02   3.7905871e-02  -4.7569156e-02  -6.1698684e-03  -4.0382842e-02   5.3679145e-02   3.1908909e-02  -4.1822971e-02   5.2160084e-02   4.0921100e-02   4.1938653e-02  -3.3232359e-02  -5.4502246e-02   3.1293907e-02   1.5789406e-01  -4.1485237e-02  -2.4899158e-03   3.4904900e-01  -1.7209535e-02   2.7977898e-01  -2.9761062e-01   2.0530947e-02  -3.0806099e-01  -1.0262501e-01  -1.4245148e-01  -4.7985631e-02
   1.5295311e-02  -1.5013089e-02   5.5191716e-02  -7.0726091e-02  -8.4373009e-02   2.6586611e-02   2.2978856e-02  -1.3263321e-01  -1.0376747e-01  -8.2527150e-02   6.3592642e-02  -4.7687788e-02  -1.4330038e-01  -1.5199354e-02   5.0196831e-02   9.1664370e-02   1.7483818e-01   3.4337911e-02  -9.1778884e-02  -2.0029815e-01   2.4040774e-01   1.7780866e-01  -1.0764687e-01   4.6084675e-01  -3.6109204e-01  -3.3968875e-01   1.6077396e-01
   6.3403462e-03  -1.7122095e-02  -1.2418248e-02   5.3518135e-03  -2.3299869e-03  -1.1118235e-02  -4.4146541e-02  -4.4845772e-02  -6.5419446e-02  -1.0236826e-01  -1.3222353e-01   1.3699166e-03   2.8286578e-01   1.0305214e-01   8.1064223e-03   9.7950400e-02   6.3482591e-02   4.3852976e-02   6.4455740e-02   4.5332464e-02  -7.4636673e-03   1.6556652e-01   1.0398068e-01   1.1682890e-01   2.4304056e-03   1.5331998e-01  -2.4762915e-01
   3.2898146e-04  -9.7623480e-03  -5.9291065e-03  -4.8425973e-02   1.9724877e-02  -9.0682842e-03   1.1008585e-02  -2.0108689e-03   5.7656632e-02  -3.4412145e-02   2.7493188e-02  -6.7003378e-02  -1.0016132e-02  -1.1381875e-01   8.3648823e-03  -4.3375332e-02   1.9129088e-02  -4.3145934e-02  -1.2201124e-01   8.5345656e-02   6.4051437e-03   1.0771707e-01  -1.5839358e-02  -9.7013153e-02   2.3843967e-02  -3.8394887e-02   5.5652612e-03
   2.0824435e-03   3.5995150e-03  -6.1376237e-05   4.5896826e-02  -4.0925969e-03   6.2127175e-03  -3.3960529e-02   2.4110520e-03  -7.9798239e-02   1.5889405e-02   9.4641441e-03   1.1014321e-01  -4.3864685e-02   2.8838474e-02  -6.7836960e-02   9.6481294e-02   2.8117428e-03   5.7372409e-02   9.1047287e-02  -2.8152983e-02  -1.9882769e-03  -5.1013034e-03  -4.6196354e-04  -5.1462475e-02   6.1438784e-02  -3.7349310e-03  -3.0496040e-02
  -2.3923918e-03   1.5745889e-03   1.8135582e-02   5.0513138e-04   9.9798673e-03   1.2992689e-02  -5.0220099e-03  -9.3443733e-03   3.1743255e-02   2.5830928e-02  -4.3136364e-02  -9.7311573e-02   2.4087908e-02  -1.5933400e-03  -4.4450593e-02   9.8820967e-02  -2.8188181e-02   4.3633979e-02  -1.6649747e-01   1.1586531e-01  -3.9074556e-02  -7.0004679e-02  -6.5415987e-03   2.4460449e-02  -3.1769304e-01   2.0991016e-01   1.5054345e-01
  -4.7232086e-03  -1.0088920e-02   3.6463048e-03  -2.0830429e-03   3.8209558e-02   1.4769509e-02  -3.4485244e-02  -4.1072220e-02   2.8904427e-03  -2.6593528e-03   5.1653283e-04  -2.1266540e-02  -2.9770446e-02   8.9118359e-03  -8.8517962e-02  -1.4616355e-01  -9.9483214e-03  -2.0391603e-01   1.4629041e-01  -1.7309136e-01  -5.4205008e-02   7.6715597e-02  -2.0017561e-01   4.7267297e-02  -1.1100970e-02  -2.3834200e-01   8.3374813e-02
   2.6115638e-04   5.9905112e-03  -4.1416607e-02   2.6758567e-02   3.2336172e-02  -3.5352494e-02   1.7040198e-02   2.7251963e-03   3.5975720e-02  -6.5653316e-02   2.9846435e-02  -4.9949907e-02   2.1184467e-02   6.9941730e-02  -7.3708017e-02   2.1238162e-01  -2.6120825e-01   6.6222351e-04  -1.4803578e-01   5.7921855e-02  -7.4750027e-02  -4.5499007e-02   1.7839935e-02   3.3666908e-01   2.1037095e-01  -1.8238275e-01  -5.6261647e-02
   1.6862127e-02   1.6083486e-02   3.7309877e-02   4.9344442e-03  -2.2997450e-02   2.7560133e-02  -2.2591427e-02  -2.4616245e-02  -3.0038195e-02   1.8774731e-02  -2.6469909e-03   2.0615138e-02  -3.7769918e-02  -9.3121952e-03   5.0082431e-02   7.2016002e-02   4.3868311e-02   5.6680267e-03  -1.7585979e-01   1.0505296e-01   1.1468991e-01   4.6474347e-02   4.7863867e-02  -7.4113151e-02   5.1242317e-02   2.5896954e-01   3.4566726e-01
  -9.2652966e-04  -3.5894201e-02   2.0901023e-02   1.0260873e-02  -1.2257226e-02   4.7404225e-02   6.0483264e-02  -5.4071697e-02  -4.9620082e-02  -1.1152519e-01   4.1222815e-02   7.8115476e-02  -2.0912069e-01   1.1156292e-01  -1.2081832e-01  -3.8286480e-02   1.2891804e-01  -1.7829137e-01  -5.6174514e-02  -6.6686523e-02   1.4888660e-02  -2.7245760e-02   4.1973012e-01  -2.0198202e-01  -2.0267834e-01  -1.3708904e-01  -6.5649301e-02
  -5.2499784e-04  -9.4549981e-03   3.7739759e-02  -4.5931169e-02  -5.2931268e-04  -4.5239646e-02   5.0696461e-02   3.0671135e-02  -3.3852027e-02   5.7910071e-02   3.3302735e-02   4.0545844e-02  -4.3676895e-02  -6.2690710e-02  -1.5407182e-02   1.5778944e-01  -4.6505451e-02  -4.1128772e-02   4.0314769e-01  -5.8277317e-03   2.7592162e-01  -2.5426301e-01   9.2056668e-02  -2.8555220e-01  -1.1377375e-01  -1.2734281e-01  -2.0032717e-01
   1.2230125e-02  -1.0600350e-02   5.9040156e-02  -7.6333363e-02  -8.1580538e-02   2.9999288e-02   1.7011866e-02  -1.3456886e-01  -9.2431491e-02  -8.6789227e-02   5.4191494e-02  -3.7760198e-02  -1.4132734e-01  -2.7696451e-02   7.4100849e-02   6.9970583e-02   1.6917623e-01   5.3272028e-03  -1.0620239e-01  -2.3213386e-01   2.2759156e-01   1.3200578e-01  -9.4640375e-02   4.4269121e-01  -3.4929418e-01  -3.4826032e-01   1.5567747e-01
   6.9799955e-03  -1.6403682e-02  -1.2899734e-02   3.8630943e-03  -6.2186854e-03  -1.5110839e-02  -4.8912547e-02  -5.0467652e-02  -6.4282472e-02  -1.0520147e-01  -1.2919673e-01   3.7719647e-03   2.8322459e-01   1.1061567e-01   2.6853111e-02   8.0431850e-02   5.9433357e-02   6.7023328e-02   5.2466935e-02   4.8347296e-02  -2.0570247e-02   1.6822432e-01   5.3663821e-02   1.4499048e-01   2.1848397e-03   1.6700869e-01  -2.3030228e-01
   2.5576279e-04  -9.1566904e-03  -4.9923258e-03  -5.5618185e-02   1.1795045e-02  -3.9154463e-03   8.3670475e-03  -1.1513598e-02   5.3030466e-02  -5.0733725e-02   2.7986343e-02  -5.6166288e-02  -2.0077371e-02  -9.0295007e-02   1.3131904e-02  -6.1602128e-02   2.3180542e-02  -7.4333704e-02  -1.4731569e-01   4.3992886e-02   7.8741835e-03   8.6582570e-02  -3.6331216e-02  -9.7162140e-02   3.8642691e-02  -7.0638437e-02   1.7930162e-02
   1.5804452e-03   1.2173209e-03  -3.0116095e-03   5.0221776e-02   7.9446899e-03   1.1448482e-02  -3.1445849e-02   5.8944500e-03  -8.4100982e-02   2.0293183e-02   2.8937877e-03   9.4951845e-02  -6.6788645e-02   1.4602252e-02  -9.4873134e-02   1.3285213e-01   2.1247161e-03   3.8893415e-02   8.4986296e-02  -1.5831473e-03  -3.3734742e-02   5.4898073e-02   3.2242271e-02  -8.6453866e-02   1.0389918e-01  -2.9600684e-02  -4.2609362e-02
  -9.4843723e-04   7.1615823e-04   8.0021459e-03  -3.4793187e-03   1.9466845e-02   6.4375252e-03   6.3276111e-03  -1.1413149e-02   2.7177522e-02   3.3037251e-02  -5.6773367e-02  -8.5041774e-02   1.5920783e-02   1.0119055e-04  -5.1846445e-02   7.5226282e-02  -3.8757866e-02   6.3851690e-02  -1.4258617e-01   1.5773712e-01  -4.2447747e-02  -3.6482840e-02  -4.0234159e-02   4.8158634e-02  -3.1127800e-01   1.7120522e-01   7.2115764e-02
  -4.7503996e-03  -4.6210504e-03   4.2033444e-03   1.2425165e-03   2.9964383e-02   1.7614843e-02  -3.6262866e-02  -4.4966869e-02  -4.0874180e-03   7.3934324e-03   1.2770834e-02  -1.0099574e-02  -4.3513385e-02   1.8749582e-02  -9.1613155e-02  -1.5349820e-01  -1.5879830e-02  -1.7076764e-01   1.2711801e-01  -9.3170293e-02  -6.9293997e-02   4.2498263e-02  -1.5209524e-01   1.7263963e-02  -5.5102301e-03  -2.6432703e-01   1.0760237e-01
   5.1500758e-04   4.3106759e-03  -4.0941997e-02   2.4903388e-02   2.8657235e-02  -3.5835441e-02   9.4645975e-03  -4.1348145e-05   3.1943668e-02  -6.2623843e-02   9.0241377e-03  -4.7555806e-02   1.9739041e-02   5.5202778e-02  -7.6378129e-02   2.3073395e-01  -2.5403710e-01  -3.2678282e-02  -1.6641940e-01   1.0054649e-01  -9.2031463e-02  -6.2876796e-02  -4.0240979e-05   2.9280165e-01   2.6156380e-01  -2.1117476e-01  -5.0416882e-02
   1.5368519e-02   1.4616216e-02   3.1982365e-02   3.6652135e-03  -1.3389536e-02   2.2699921e-02  -2.4025044e-02  -2.1280002e-02  -3.3957393e-02  -2.6050400e-03  -6.4319774e-03   5.8679226e-02  -3.1347135e-02  -9.1632798e-03   2.3656021e-02   1.4027832e-01   2.8013719e-02  -2.5018739e-02  -2.0882981e-01   1.2162013e-01   1.9593490e-01   4.9626163e-02   4.5009813e-02  -7.8028664e-02   5.1833235e-02   3.4290633e-01   2.7498372e-01
  -8.1952460e-04  -3.3608578e-02   1.8070944e-02   2.5851268e-02  -1.6686664e-02   4.9463185e-02   4.4406634e-02  -6.1163718e-02  -7.1917531e-02  -1.0217768e-01   3.8611590e-02   1.1163953e-01  -1.8796329e-01   1.3250733e-01  -1.2882336e-01  -2.2240184e-02   1.4840474e-01  -1.7846476e-01  -2.5163986e-02  -3.1278536e-02  -1.4632029e-02  -2.5633204e-02   4.0713712e-01  -1.6104298e-01  -1.7324800e-01  -1.0456629e-01  -3.6844903e-02
  -2.1649867e-03  -8.0350481e-03   3.7431629e-02  -4.5064304e-02   2.9109120e-03  -4.8350041e-02   4.6171021e-02   2.7697840e-02  -2.6513141e-02   6.1056439e-02   2.2787531e-02   3.6571131e-02  -5.2599381e-02  -7.0363016e-02  -6.3409587e-02   1.5208313e-01  -4.7439010e-02  -8.4229562e-02   4.4715669e-01   5.3670560e-03   2.6735425e-01  -2.1057402e-01   1.5998381e-01  -2.4856680e-01  -1.2681160e-01  -1.1354472e-01  -3.4376922e-01
   8.8842342e-03  -5.5109807e-03   6.2052604e-02  -8.0767497e-02  -7.8127035e-02   3.2880789e-02   1.2814393e-02  -1.3326442e-01  -7.9917523e-02  -8.7556839e-02   4.4809198e-02  -3.2094084e-02  -1.4140470e-01  -4.0782560e-02   9.3748209e-02   5.0329012e-02   1.5806045e-01  -2.3968543e-02  -1.1857209e-01  -2.6128056e-01   2.1528435e-01   8.3508931e-02  -7.3580054e-02   4.0971841e-01  -3.2281883e-01  -3.4122185e-01   1.4279406e-01
   8.5381284e-03  -1.5671755e-02  -1.3926725e-02   3.5090632e-04  -1.1802973e-02  -1.9370239e-02  -5.5276883e-02  -5.8080565e-02  -6.1427981e-02  -1.0812663e-01  -1.2037561e-01   1.8384919e-02   2.8560741e-01   1.1358732e-01   4.4070393e-02   7.0563819e-02   4.8382221e-02   8.2107172e-02   4.6924577e-02   4.7095789e-02  -2.4711209e-02   1.5544064e-01   1.3908417e-02   1.6867298e-01  -3.3116063e-03   1.6849105e-01  -1.9658970e-01
   1.0334824e-03  -7.2965701e-03  -5.0471526e-03  -6.4070144e-02   8.2955834e-04  -1.4520742e-03   5.5135065e-03  -2.1277342e-02   5.3140494e-02  -6.1174711e-02   3.1332884e-02  -4.1463727e-02  -2.6331339e-02  -6.5754605e-02   2.0350354e-02  -7.5606780e-02   2.0880767e-02  -8.6527827e-02  -1.5798889e-01  -5.9683570e-03   1.5038743e-02   5.0680930e-02  -3.8649888e-02  -8.9522740e-02   5.0060775e-02  -9.7708928e-02   2.8370041e-02
   8.9453697e-04  -9.0937430e-04  -4.6861667e-03   5.2397800e-02   1.6824376e-02   1.6684128e-02  -2.9975990e-02   7.2548783e-03  -8.7162716e-02   2.4768750e-02  -2.3283163e-04   8.0815535e-02  -8.3419702e-02   7.6568860e-03  -1.1038270e-01   1.5017616e-01   4.3643009e-03   2.3438062e-02   7.7949853e-02   2.0274157e-02  -5.8355330e-02   9.8662555e-02   5.5982218e-02  -1.0380467e-01   1.3468405e-01  -4.1040054e-02  -4.4802793e-02
   8.1879245e-04   2.9707885e-04  -1.3496669e-03  -8.8257656e-03   2.6655846e-02  -3.0365787e-04   1.6525375e-02  -1.3649023e-02   2.1882664e-02   3.6994269e-02  -6.6647717e-02  -6.3446804e-02   7.9764067e-03  -3.7182662e-05  -5.0670306e-02   3.9197277e-02  -4.4595507e-02   7.9216619e-02  -9.9953394e-02   1.7794625e-01  -4.8056328e-02  -4.7211983e-03  -6.7559826e-02   6.7368589e-02  -3.0898206e-01   1.3356971e-01  -1.0606256e-02
  -4.0894925e-03   1.5581138e-04   4.2986800e-03   4.6765237e-03   1.9134449e-02   1.9793684e-02  -3.5173162e-02  -4.7056230e-02  -1.2770473e-02   1.5456864e-02   2.2464119e-02  -2.6062118e-03  -5.4946898e-02   2.3101205e-02  -8.7375922e-02  -1.5524462e-01  -1.5271021e-02  -1.2466819e-01   1.0936587e-01  -1.5086246e-02  -8.7106582e-02   6.4872264e-03  -9.7395823e-02  -1.5190432e-02   2.6162192e-03  -2.8784023e-01   1.2866949e-01
   7.6220734e-04   3.2887850e-03  -3.8847464e-02   2.1394638e-02   2.3022410e-02  -3.6268004e-02   1.4891396e-03  -1.3669104e-03   2.8188600e-02  -5.9277565e-02  -8.4491905e-03  -3.5297397e-02   1.9937882e-02   3.7429480e-02  -7.6464897e-02   2.3801235e-01  -2.3543844e-01  -7.2375775e-02  -1.7224146e-01   1.2372921e-01  -1.0054467e-01  -8.3379189e-02  -2.0928439e-02   2.3287199e-01   3.1645518e-01  -2.2869348e-01  -3.8136975e-02
   1.3548030e-02   1.1678918e-02   2.6445156e-02   9.6401451e-04  -4.1268167e-03   1.5885392e-02  -2.4835373e-02  -1.6971299e-02  -3.2298580e-02  -2.2522026e-02  -9.7002207e-03   9.9319801e-02  -2.2473590e-02  -5.3359738e-03  -4.6927365e-03   1.9797253e-01   1.1977638e-02  -6.8492406e-02  -2.3573363e-01   1.3081821e-01   2.6055364e-01   5.1288544e-02   3.5737839e-02  -7.3267335e-02   4.9995529e-02   4.1978493e-01   1.7067211e-01
  -3.9185065e-04  -3.0406667e-02   1.5153043e-02   4.2791805e-02  -2.1692988e-02   5.0086990e-02   2.8323425e-02  -6.6445684e-02  -9.4148181e-02  -9.1205946e-02   3.4810499e-02   1.4456078e-01  -1.6448792e-01   1.5226625e-01  -1.3434026e-01  -4.4868348e-03   1.6672758e-01  -1.7504866e-01   6.1590478e-03   6.2910174e-04  -4.4606800e-02  -2.9577231e-02   3.7980992e-01  -1.1839393e-01  -1.3892963e-01  -7.4055687e-02  -9.9513271e-03
  -3.7424368e-03  -5.9889877e-03   3.6706639e-02  -4.4977487e-02   4.0790827e-03  -4.9570180e-02   4.0269436e-02   2.2718746e-02  -1.9934123e-02   6.1232902e-02   9.0029974e-03   3.0037487e-02  -5.8739462e-02  -7.6835906e-02  -1.1115760e-01   1.4195818e-01  -4.3702088e-02  -1.2931489e-01   4.7866136e-01   1.5478932e-02   2.5404289e-01  -1.6753205e-01   2.2133135e-01  -1.9819131e-01  -1.4069008e-01  -1.0022359e-01  -4.7157022e-01
   5.3898178e-03   1.0011763e-04   6.3917861e-02  -8.3940278e-02  -7.4264096e-02   3.4869514e-02   1.0764654e-02  -1.2865559e-01  -6.6353769e-02  -8.4941344e-02   3.5887451e-02  -3.0917273e-02  -1.4422606e-01  -5.4514149e-02   1.0837805e-01   3.4322485e-02   1.4299410e-01  -5.2135912e-02  -1.2837786e-01  -2.8572308e-01   2.0387241e-01   3.3022715e-02  -4.5705734e-02   3.6282097e-01  -2.8153690e-01  -3.1914218e-01   1.2280455e-01
   1.0799823e-02  -1.4735911e-02  -1.5248301e-02  -5.1174911e-03  -1.9559313e-02  -2.2446941e-02  -6.1719891e-02  -6.7553392e-02  -5.8149930e-02  -1.1302558e-01  -1.0734872e-01   4.1946664e-02   2.8899963e-01   1.1335682e-01   5.7021254e-02   7.0600842e-02   3.3561741e-02   8.9374397e-02   4.5310059e-02   3.5823533e-02  -1.9681614e-02   1.3191444e-01  -4.6576799e-03   1.8961857e-01  -1.4345451e-02   1.5239079e-01  -1.4875388e-01
   2.7288480e-03  -4.5791292e-03  -6.4971098e-03  -7.2745146e-02  -1.1418337e-02  -3.0832946e-03   2.0075214e-03  -2.9888913e-02   5.8697504e-02  -6.3094375e-02   3.8484551e-02  -2.2688064e-02  -2.5251572e-02  -4.4771096e-02   2.9324802e-02  -8.3660041e-02   9.6236384e-03  -7.8872485e-02  -1.4929060e-01  -5.6012871e-02   2.6390855e-02   4.3435533e-03  -2.5490267e-02  -7.3064338e-02   5.3172283e-02  -1.1379577e-01   3.7447889e-02
   5.6743710e-05  -2.4037322e-03  -4.1377706e-03   5.2400107e-02   2.0211773e-02   2.1199442e-02  -2.9988861e-02   6.3306261e-03  -8.9084783e-02   2.6466395e-02   5.3766646e-04   6.9601852e-02  -8.7592796e-02   9.3299443e-03  -1.1002117e-01   1.4209552e-01   1.3410359e-02   1.4822227e-02   6.7620294e-02   3.2847357e-02  -6.9345536e-02   1.1657465e-01   6.2304819e-02  -9.8204974e-02   1.4454461e-01  -3.7031522e-02  -3.2697919e-02
   2.7630577e-03   4.4882408e-04  -9.2924352e-03  -1.5134358e-02   3.0840065e-02  -6.4931497e-03   2.5164657e-02  -1.5485166e-02   1.6567391e-02   3.7962748e-02  -7.1415540e-02  -3.3750046e-02   1.4680060e-03  -2.2612607e-03  -4.2503619e-02  -8.0567449e-03  -4.4761569e-02   8.7085964e-02  -3.9200124e-02   1.7264807e-01  -5.4407607e-02   2.1505733e-02  -8.3311124e-02   8.0359890e-02  -3.1115573e-01   1.0215801e-01  -9.4836390e-02
  -2.7563130e-03   4.0099591e-03   3.9272612e-03   8.3859739e-03   6.1025530e-03   2.1839757e-02  -3.1502864e-02  -4.6551530e-02  -2.2668723e-02   2.1847253e-02   2.9675204e-02  -1.5263109e-03  -6.3659121e-02   2.0064921e-02  -7.4975073e-02  -1.5235452e-01  -5.3702482e-03  -6.3351739e-02   9.3538725e-02   5.5155280e-02  -1.0825592e-01  -3.0487913e-02  -3.4646874e-02  -5.2403385e-02   1.4414814e-02  -3.0635425e-01   1.4872594e-01
   9.2348322e-04   3.2578128e-03  -3.5083229e-02   1.6466532e-02   1.5594999e-02  -3.6372553e-02  -6.4853209e-03  -7.8962291e-04   2.5314596e-02  -5.5508040e-02  -2.1597122e-02  -1.4112828e-02   2.1888457e-02   1.7025686e-02  -7.4227166e-02   2.3373149e-01  -2.0525448e-01  -1.1821899e-01  -1.6510617e-01   1.2374608e-01  -1.0014805e-01  -1.0752115e-01  -4.2816849e-02   1.5970740e-01   3.7358996e-01  -2.2936329e-01  -2.2475323e-02
   1.1502741e-02   7.5939741e-03   2.0770284e-02  -3.0372244e-03   4.1220013e-03   7.6243111e-03  -2.5226292e-02  -1.1136269e-02  -2.5045745e-02  -4.0841372e-02  -1.1983629e-02   1.3867425e-01  -1.1792613e-02   2.2459884e-03  -3.2150426e-02   2.4226195e-01  -2.8774065e-03  -1.1998251e-01  -2.5605825e-01   1.3158420e-01   3.0574156e-01   5.0737104e-02   1.9898584e-02  -5.7310462e-02   4.6310169e-02   4.8559348e-01   4.0022372e-02
   3.3286752e-04  -2.6325511e-02   1.2285965e-02   6.1270279e-02  -2.6982339e-02   4.9473663e-02   1.2342275e-02  -6.9765819e-02  -1.1647554e-01  -7.8457593e-02   3.0108829e-02   1.7664242e-01  -1.4008491e-01   1.7104052e-01  -1.3741414e-01   1.6455930e-02   1.8342137e-01  -1.6714636e-01   3.7548838e-02   2.7437883e-02  -7.3538542e-02  -3.9675098e-02   3.3901555e-01  -7.5601250e-02  -1.0079653e-01  -4.6507160e-02   1.4030369e-02
  -5.1327165e-03  -3.4332972e-03   3.5278005e-02  -4.5622270e-02   3.0179833e-03  -4.8935354e-02   3.3162939e-02   1.5600274e-02  -1.4188463e-02   5.8223082e-02  -8.2580517e-03   2.1023708e-02  -6.0837428e-02  -8.1574321e-02  -1.5689885e-01   1.2893954e-01  -3.4721584e-02  -1.7359531e-01   4.9566429e-01   2.4119005e-02   2.3603175e-01  -1.2612523e-01   2.7283391e-01  -1.3668409e-01  -1.5393496e-01  -8.5806943e-02  -5.7772349e-01
   1.8696681e-03   6.0479615e-03   6.4373222e-02  -8.5886490e-02  -7.0329490e-02   3.5654905e-02   1.1133776e-02  -1.2078627e-01  -5.1872695e-02  -7.9222748e-02   2.7845194e-02  -3.4321403e-02  -1.5031347e-01  -6.8775691e-02   1.1734067e-01   2.2975118e-02   1.2597144e-01  -7.7834802e-02  -1.3526577e-01  -3.0360767e-01   1.9354147e-01  -1.8976748e-02  -1.3132081e-02   3.0359963e-01  -2.2631809e-01  -2.8338193e-01   9.7065435e-02
   1.3384566e-02  -1.3390675e-02  -1.6629291e-02  -1.2338866e-02  -2.9563198e-02  -2.2679934e-02  -6.6413673e-02  -7.8739872e-02  -5.5871064e-02  -1.2143034e-01  -9.2564651e-02   6.9074971e-02   2.9127997e-01   1.1250265e-01   6.3228587e-02   8.1228921e-02   1.8863476e-02   8.9450511e-02   4.3617824e-02   9.4113530e-03  -7.5411974e-03   1.0451657e-01   6.1008251e-03   2.0940346e-01  -2.8463614e-02   1.1438354e-01  -9.0227232e-02
   5.2394839e-03  -1.5162514e-03  -9.5329518e-03  -8.0474219e-02  -2.3091815e-02  -9.7657733e-03  -2.5558668e-03  -3.5887160e-02   6.9388752e-02  -5.5455568e-02   4.9687234e-02  -1.2431929e-04  -1.4147527e-02  -3.1531169e-02   3.9361380e-02  -8.5397600e-02  -1.1669289e-02  -5.2743928e-02  -1.1904974e-01  -9.7238197e-02   3.8840787e-02  -4.5998152e-02  -3.5267869e-03  -4.8208854e-02   4.3947396e-02  -1.1344380e-01   4.5160295e-02
  -9.1534050e-04  -3.0117070e-03  -6.4791377e-04   5.0532046e-02   1.6709063e-02   2.4518549e-02  -3.1530761e-02   3.3108152e-03  -9.0054182e-02   2.2936439e-02   4.8445864e-03   6.1971323e-02  -7.5143782e-02   2.0166130e-02  -9.1706719e-02   1.0580040e-01   3.1958512e-02   1.5284398e-02   5.0615953e-02   3.2578809e-02  -6.1816269e-02   1.0182479e-01   4.5222682e-02  -6.7852192e-02   1.2732574e-01  -1.9716470e-02  -5.5957114e-03
   4.7383256e-03   1.2573522e-03  -1.5303507e-02  -2.1812172e-02   3.1632172e-02  -1.1449392e-02   3.1943524e-02  -1.6316418e-02   1.2044792e-02   3.6576400e-02  -7.0610729e-02   2.0055284e-03  -2.6548577e-03  -7.1006218e-03  -2.9862913e-02  -6.4011366e-02  -3.8649540e-02   8.5438669e-02   3.7362703e-02   1.4019577e-01  -6.0129413e-02   3.9512842e-02  -8.3114474e-02   8.5924928e-02  -3.1666436e-01   8.1993660e-02  -1.7782323e-01
  -8.3702331e-04   6.8226395e-03   3.1045147e-03   1.2522464e-02  -8.5506135e-03   2.4233739e-02  -2.5744902e-02  -4.2729301e-02  -3.3146359e-02   2.6944559e-02   3.4695993e-02  -8.8943724e-03  -6.9383103e-02   8.2214324e-03  -5.3975152e-02  -1.4552013e-01   1.5669703e-02   1.4708734e-02   7.9528080e-02   1.1273705e-01  -1.3251266e-01  -6.7257275e-02   3.7104553e-02  -9.6365773e-02   3.1085095e-02  -3.1658173e-01   1.6964533e-01
   9.2160688e-04   4.4620900e-03  -2.9686048e-02   1.0557637e-02   6.7909264e-03  -3.5838074e-02  -1.3991306e-02   2.0709435e-03   2.3852113e-02  -5.1008910e-02  -3.0011937e-02   1.4252037e-02   2.5290529e-02  -5.6555230e-03  -7.0091680e-02   2.1831276e-01  -1.6364804e-01  -1.6947039e-01  -1.4544577e-01   9.8904095e-02  -9.1131096e-02  -1.3491312e-01  -6.3236958e-02   7.6377323e-02   4.3088680e-01  -2.0866657e-01  -6.8987053e-03
   9.3564389e-03   2.8571111e-03   1.5008736e-02  -8.0510909e-03   1.0811718e-02  -1.3994286e-03  -2.5358863e-02  -3.4356565e-03  -1.2579655e-02  -5.7270743e-02  -1.2933537e-02   1.7297417e-01  -2.6671018e-04   1.3084556e-02  -5.6029298e-02   2.7122847e-01  -1.5079446e-02  -1.7313546e-01  -2.6951234e-01   1.2325158e-01   3.2976982e-01   4.7681574e-02  -1.3108282e-03  -2.9393230e-02   4.1823617e-02   5.3687276e-01  -1.0697152e-01
   1.3122916e-03  -2.1446053e-02   9.6090735e-03   8.1462540e-02  -3.2186718e-02   4.7871419e-02  -3.4892226e-03  -7.1054722e-02  -1.3916233e-01  -6.3706258e-02   2.4831818e-02   2.0763152e-01  -1.1610153e-01   1.8901231e-01  -1.3821384e-01   4.1993809e-02   1.9797359e-01  -1.5388654e-01   6.8955652e-02   4.8062859e-02  -9.9967251e-02  -5.5992328e-02   2.8641768e-01  -3.4026305e-02  -5.9885437e-02  -2.2149896e-02   3.4326880e-02
  -6.2025943e-03  -5.5864837e-04   3.2872100e-02  -4.6903933e-02  -1.5589589e-04  -4.6673642e-02   2.4987298e-02   6.3749655e-03  -9.2810816e-03   5.1905660e-02  -2.9006176e-02   9.6893869e-03  -5.7628106e-02  -8.4242816e-02  -1.9869309e-01   1.1487017e-01  -1.9893837e-02  -2.1407882e-01   4.9671013e-01   3.1380858e-02   2.1352982e-01  -8.7448150e-02   3.1114076e-01  -6.7328423e-02  -1.6478235e-01  -6.8043750e-02  -6.5720947e-01
  -1.5692519e-03   1.2121598e-02   6.3208727e-02  -8.6752357e-02  -6.6696557e-02   3.4998016e-02   1.4072232e-02  -1.0978123e-01  -3.6566725e-02  -7.0759800e-02   2.1044552e-02  -4.2323932e-02  -1.6010541e-01  -8.3313377e-02   1.2002826e-01   1.6697700e-02   1.0937220e-01  -9.9883826e-02  -1.3905437e-01  -3.1321729e-01   1.8421054e-01  -7.2200042e-02   2.1254788e-02   2.3423198e-01  -1.5894361e-01  -2.3595284e-01   6.7435732e-02
   1.5801874e-02  -1.1530399e-02  -1.7899448e-02  -2.0808470e-02  -4.1182001e-02  -1.8625219e-02  -6.7733009e-02  -9.1260563e-02  -5.5701253e-02  -1.3376758e-01  -7.8943797e-02   9.3038589e-02   2.8988866e-01   1.1386141e-01   6.0980735e-02   1.0129045e-01   8.2377188e-03   8.2998394e-02   3.6843483e-02  -3.4326010e-02   7.7524257e-03   8.0957685e-02   4.8930270e-02   2.2859273e-01  -4.1017938e-02   5.3745523e-02  -2.5618915e-02
   8.2541189e-03   1.3542032e-03  -1.3986839e-02  -8.6042181e-02  -3.2440175e-02  -2.1513748e-02  -8.2180950e-03  -3.7981751e-02   8.3719829e-02  -3.9191685e-02   6.4036770e-02   2.4770664e-02   7.6698788e-03  -2.8928669e-02   4.9624908e-02  -8.1917780e-02  -4.1483150e-02  -1.1459058e-02  -6.8866297e-02  -1.2162556e-01   4.8345836e-02  -9.2622128e-02   1.8831809e-02  -1.7226516e-02   2.0544120e-02  -9.3024446e-02   5.0632851e-02
  -1.9965723e-03  -2.6324758e-03   5.9368206e-03   4.7334434e-02   6.3663970e-03   2.6420425e-02  -3.4177085e-02  -1.2835040e-03  -9.0181339e-02   1.3085177e-02   1.1569402e-02   5.7357649e-02  -4.5522920e-02   3.9584896e-02  -5.6506179e-02   4.3743343e-02   5.9935724e-02   2.5013162e-02   2.4370991e-02   1.8026990e-02  -3.4282691e-02   5.2850472e-02   3.3421868e-03  -1.5642186e-02   8.2721152e-02   6.1070105e-03   3.2915519e-02
   6.6180160e-03   2.7408482e-03  -1.8981404e-02  -2.8118998e-02   2.8976678e-02  -1.4613059e-02   3.6669185e-02  -1.5616061e-02   9.1393247e-03   3.3711690e-02  -6.4622391e-02   4.1069173e-02  -3.7858048e-03  -1.5228571e-02  -1.5930860e-02  -1.2499673e-01  -2.6080008e-02   7.3181933e-02   1.2567278e-01   8.1265100e-02  -6.4138251e-02   4.7943784e-02  -6.3968586e-02   8.3631986e-02  -3.2300677e-01   7.7246632e-02  -2.5663657e-01
   1.5203229e-03   8.5526200e-03   1.8977803e-03   1.7153892e-02  -2.4060237e-02   2.7293202e-02  -1.8563713e-02  -3.5059606e-02  -4.3433161e-02   3.1096361e-02   3.7963836e-02  -2.5710806e-02  -7.1906021e-02  -1.3092697e-02  -2.4476024e-02  -1.3523734e-01   4.8488442e-02   1.0943643e-01   6.6844961e-02   1.5411753e-01  -1.5887965e-01  -1.0226378e-01   1.1771404e-01  -1.4822378e-01   5.3454672e-02  -3.1493268e-01   1.9259275e-01
   6.8546879e-04   7.0222723e-03  -2.2781744e-02   4.2773178e-03  -2.7503563e-03  -3.4343095e-02  -2.0528763e-02   7.4059953e-03   2.4136590e-02  -4.5382132e-02  -3.3740175e-02   4.7337190e-02   2.9461846e-02  -3.0164620e-02  -6.4422040e-02   1.9303213e-01  -1.1122332e-01  -2.2472908e-01  -1.1452217e-01   4.9775134e-02  -7.4168942e-02  -1.6414488e-01  -7.9494043e-02  -1.3818230e-02   4.8534900e-01  -1.6381137e-01   5.2106366e-03
   7.2591738e-03  -1.9246598e-03   9.2121357e-03  -1.3651460e-02   1.5576089e-02  -1.0407639e-02  -2.5326618e-02   6.1435505e-03   4.3017751e-03  -7.1307377e-02  -1.2439741e-02   1.9884991e-01   1.0997135e-02   2.6090219e-02  -7.4056275e-02   2.8388972e-01  -2.3216004e-02  -2.2072409e-01  -2.7591536e-01   1.0562594e-01   3.3203166e-01   4.2305778e-02  -2.5660401e-02   9.3971116e-03   3.7819313e-02   5.7067993e-01  -2.5831809e-01
   2.4864903e-03  -1.5889515e-02   7.2736492e-03   1.0352960e-01  -3.6909935e-02   4.5563936e-02  -1.9182120e-02  -7.0326026e-02  -1.6259651e-01  -4.6725651e-02   1.9282431e-02   2.3729646e-01  -9.3735144e-02   2.0635172e-01  -1.3701032e-01   7.3262896e-02   2.0994282e-01  -1.3448850e-01   1.0044058e-01   6.1937813e-02  -1.2249713e-01  -7.8107424e-02   2.2380934e-01   5.3035569e-03  -1.7152199e-02  -4.6575162e-04   5.0441624e-02
  -6.8147481e-03   2.3798928e-03   2.9254696e-02  -4.8709302e-02  -5.3124187e-03  -4.3186557e-02   1.5828130e-02  -4.7636211e-03  -5.1571272e-03   4.2166980e-02  -5.3044316e-02  -3.7229947e-03  -4.7884844e-02  -8.4688984e-02  -2.3446981e-01   1.0187774e-01   1.4494941e-03  -2.4769387e-01   4.8098506e-01   3.7671975e-02   1.8698030e-01  -5.2740638e-02   3.3317385e-01   5.8331472e-03  -1.7129698e-01  -4.4264643e-02  -7.0617283e-01
  -4.8382753e-03   1.8087061e-02   6.0264102e-02  -8.6771300e-02  -6.3709893e-02   3.2740334e-02   1.9594963e-02  -9.5807945e-02  -2.0445810e-02  -5.9880211e-02   1.5760959e-02  -5.4907018e-02  -1.7405522e-01  -9.7820404e-02   1.1579325e-01   1.5314777e-02   9.5818557e-02  -1.1735044e-01  -1.3969237e-01  -3.1289383e-01   1.7546970e-01  -1.2645883e-01   5.3957970e-02   1.5726952e-01  -8.1941821e-02  -1.7931793e-01   3.6061995e-02
   1.7534537e-02  -9.2486792e-03  -1.8969556e-02  -2.9562484e-02  -5.2913064e-02  -9.6114096e-03  -6.4784701e-02  -1.0420651e-01  -5.8029935e-02  -1.4881492e-01  -6.9391659e-02   1.0695755e-01   2.8276860e-01   1.1937744e-01   4.9986466e-02   1.2770873e-01   5.0561671e-03   7.0893157e-02   1.9973223e-02  -9.2553603e-02   2.1095443e-02   6.8199722e-02   1.1858070e-01   2.4611853e-01  -4.6398208e-02  -2.3966614e-02   3.9282842e-02
   1.1250779e-02   3.5533874e-03  -1.9258917e-02  -8.8310468e-02  -3.7983149e-02  -3.6969960e-02  -1.4379254e-02  -3.5347060e-02   9.9048730e-02  -1.7222459e-02   7.9223680e-02   4.8878905e-02   3.7927286e-02  -3.7747632e-02   5.8838660e-02  -7.5473421e-02  -7.5183076e-02   3.9695039e-02  -4.9667215e-03  -1.2339287e-01   5.0749478e-02  -1.2749003e-01   3.4235895e-02   1.5687659e-02  -1.5476942e-02  -5.2509262e-02   5.2119772e-02
  -3.1153748e-03  -1.3403552e-03   1.4910498e-02   4.3480753e-02  -9.0146725e-03   2.6859085e-02  -3.7088812e-02  -6.6211909e-03  -8.9349539e-02  -2.0872845e-03   1.9045819e-02   5.4349394e-02  -2.8230812e-03   6.5382098e-02  -9.2632037e-03  -3.5076629e-02   9.3392192e-02   4.1910998e-02  -1.0904711e-02  -9.1896416e-03   9.9185461e-03  -2.4622906e-02  -5.8648785e-02   5.0114481e-02   1.7993847e-02   3.3911892e-02   7.5133540e-02
   8.3121677e-03   4.8317524e-03  -2.0063896e-02  -3.3237008e-02   2.3132171e-02  -1.5599372e-02   3.9250108e-02  -1.3064380e-02   8.5889313e-03   3.0342766e-02  -5.4554488e-02   8.0138128e-02  -1.7169955e-03  -2.7263459e-02  -4.2198462e-03  -1.8646161e-01  -7.4480905e-03   5.0433121e-02   2.1997475e-01  -1.1245304e-03  -6.5778540e-02   4.6809602e-02  -2.4702527e-02   7.4029401e-02  -3.2652525e-01   9.0451475e-02  -3.2791934e-01
   4.1126909e-03   9.2062050e-03   4.4601664e-04   2.2204332e-02  -3.9520207e-02   3.1107580e-02  -1.0738425e-02  -2.3320267e-02  -5.2656709e-02   3.4512664e-02   4.0009910e-02  -5.1747124e-02  -7.1033979e-02  -4.3493983e-02   1.2751240e-02  -1.2188513e-01   9.2306185e-02   2.1846178e-01   5.4832962e-02   1.7699831e-01  -1.8571223e-01  -1.3362953e-01   2.0558105e-01  -2.0780062e-01   8.1580797e-02  -2.9810266e-01   2.1773833e-01
   1.5388527e-04   1.0908049e-02  -1.4595067e-02  -1.6478585e-03  -1.2205933e-02  -3.1583542e-02  -2.5612421e-02   1.5105318e-02   2.6196997e-02  -3.8250806e-02  -3.3115057e-02   8.2106349e-02   3.3398710e-02  -5.5788442e-02  -5.7278830e-02   1.5991055e-01  -4.9195352e-02  -2.8180478e-01  -7.4388705e-02  -2.0641274e-02  -5.0271200e-02  -1.9278952e-01  -8.8979209e-02  -1.0733248e-01   5.3283816e-01  -9.4350440e-02   1.1028725e-02
   5.3874318e-03  -6.1011291e-03   3.4532938e-03  -1.9302719e-02   1.8266419e-02  -1.8604381e-02  -2.5135708e-02   1.7197949e-02   2.4377136e-02  -8.2198921e-02  -1.0724567e-02   2.1355824e-01   2.0951657e-02   3.9652018e-02  -8.4617294e-02   2.8013993e-01  -2.6140659e-02  -2.5545885e-01  -2.7511684e-01   7.9006576e-02   3.1306955e-01   3.5180768e-02  -5.0256014e-02   5.6254878e-02   3.5515371e-02   5.8447620e-01  -4.0089824e-01
   3.7797557e-03  -9.8103800e-03   5.4558249e-03   1.2761230e-01  -4.0778254e-02   4.2862837e-02  -3.4792531e-02  -6.7676509e-02  -1.8730871e-01  -2.7376470e-02   1.3679485e-02   2.6545133e-01  -7.3950065e-02   2.2324158e-01  -1.3415243e-01   1.1095037e-01   2.1908781e-01  -1.0833350e-01   1.3204571e-01   6.8954727e-02  -1.3980430e-01  -1.0521238e-01   1.5287724e-01   4.1800669e-02   2.6569932e-02   1.9722942e-02   6.2172616e-02
  -6.8351903e-03   5.0818856e-03   2.4253945e-02  -5.0949117e-02  -1.2374937e-02  -3.8989811e-02   5.7341197e-03  -1.7504934e-02  -1.7306233e-03   2.8800301e-02  -7.9981939e-02  -1.8928044e-02  -3.0520176e-02  -8.2852493e-02  -2.6214757e-01   9.2328292e-02   3.0061948e-02  -2.7145286e-01   4.4835689e-01   4.3421340e-02   1.5709639e-01  -2.3350093e-02   3.3662945e-01   7.8359229e-02  -1.7144302e-01  -1.1850850e-02  -7.2202264e-01
  -7.8654489e-03   2.3689595e-02   5.5421450e-02  -8.6230701e-02  -6.1618556e-02   2.8799988e-02   2.7565112e-02  -7.9032298e-02  -3.4021225e-03  -4.6768756e-02   1.2164376e-02  -7.2022835e-02  -1.9271622e-01  -1.1206196e-01   1.0387329e-01   1.8155787e-02   8.8008413e-02  -1.2963593e-01  -1.3716466e-01  -3.0093869e-01   1.6654310e-01  -1.8156282e-01   8.1070969e-02   7.5399447e-02   1.6103529e-03  -1.1615237e-01   5.1511809e-03
   1.8140283e-02  -6.8908091e-03  -1.9806293e-02  -3.7115416e-02  -6.2456037e-02   3.7241744e-03  -5.7816552e-02  -1.1589594e-01  -6.2269601e-02  -1.6356202e-01  -6.6250699e-02   1.0530891e-01   2.6929509e-01   1.2903346e-01   3.2011638e-02   1.5566297e-01   1.1505991e-02   5.4766215e-02  -1.0561396e-02  -1.5622018e-01   2.7298713e-02   7.0866103e-02   2.0041408e-01   2.5909187e-01  -3.9706724e-02  -1.0512316e-01   9.7700981e-02
   1.3546928e-02   4.7317804e-03  -2.4354897e-02  -8.6371146e-02  -3.8635261e-02  -5.3205123e-02  -1.9679312e-02  -2.7931509e-02   1.1185530e-01   5.9334116e-03   9.1585045e-02   6.7368720e-02   7.0935450e-02  -5.6140321e-02   6.4962543e-02  -6.8756331e-02  -1.0526292e-01   9.3297849e-02   6.1700955e-02  -1.0022517e-01   4.2679307e-02  -1.4324813e-01   3.9043645e-02   4.4709640e-02  -5.8282161e-02   3.0189629e-03   4.7412724e-02
  -4.1153126e-03   6.0840181e-04   2.4568363e-02   3.9659234e-02  -2.5923666e-02   2.5826230e-02  -3.9204120e-02  -1.1599721e-02  -8.7118687e-02  -1.9192657e-02   2.5408591e-02   5.1350963e-02   4.4232680e-02   9.3330504e-02   4.1389931e-02  -1.1499655e-01   1.2429068e-01   6.1733543e-02  -5.0839812e-02  -4.3966847e-02   6.2112077e-02  -1.1677124e-01  -1.2967617e-01   1.1601147e-01  -5.2173142e-02   5.6706677e-02   1.1024836e-01
