  -2.1627978e-03  -4.7789408e-03
  -1.4614445e-02   3.0688287e-02
  -2.4192731e-02   2.4365079e-03
   1.1275094e-02   3.9854199e-02
   6.0399855e-04  -2.2439613e-02
  -4.6322651e-03   4.9560897e-02
   8.9494910e-04   4.9763771e-02
  -3.7510775e-03   9.9387522e-02
   6.1241961e-02   1.2702022e-01
  -2.3452960e-02   4.5855669e-02
  -4.0086911e-03  -3.0386136e-03
  -9.5820570e-03   2.2894978e-02
  -1.0742470e-02  -1.4305584e-03
   7.1998365e-03   1.2617152e-02
   3.9742180e-03  -1.7090186e-02
  -2.9924729e-03   3.6253451e-02
  -2.1456265e-03   3.4651665e-02
  -3.9209001e-04   7.0887725e-02
   3.8401241e-02   7.8615501e-02
  -1.5752796e-02   3.1050463e-02
  -4.8506920e-03  -8.5953231e-04
  -5.2237406e-03   1.6209034e-02
  -1.9960173e-03  -3.1495524e-03
   4.5471930e-03  -4.5086823e-03
   6.0579886e-03  -1.2848936e-02
  -9.1780605e-04   2.5706026e-02
  -4.5891948e-03   1.9597946e-02
   1.6905081e-03   4.3633080e-02
   2.0520208e-02   3.9903937e-02
  -9.4693990e-03   1.8389954e-02
  -5.0824687e-03   1.2671055e-03
  -1.6135230e-03   1.0454637e-02
   2.8017410e-03  -3.3836896e-03
   3.0980584e-03  -1.2920024e-02
   6.9722097e-03  -9.6555063e-03
   1.3579351e-03   1.7935698e-02
  -6.3109598e-03   7.0012476e-03
   2.9807829e-03   2.0542112e-02
   7.3968135e-03   1.1059336e-02
  -4.4672391e-03   8.8304888e-03
  -5.0390643e-03   2.9257893e-03
   1.2281751e-03   5.5431399e-03
   4.5082643e-03  -2.7601707e-03
   2.5763252e-03  -1.4541183e-02
   6.8962815e-03  -7.3349745e-03
   3.6054963e-03   1.2739710e-02
  -7.2429388e-03  -1.5429648e-03
   3.9007279e-03   3.8237248e-03
  -1.3610783e-03  -8.2932289e-03
  -6.0371476e-04   2.9148344e-03
  -4.9766231e-03   3.8420817e-03
   3.3313083e-03   1.4561828e-03
   4.0073905e-03  -1.8039118e-03
   2.6788470e-03  -1.1565419e-02
   6.0532159e-03  -5.6168319e-03
   5.6167767e-03   9.7425921e-03
  -7.4320673e-03  -5.6343888e-03
   4.7200323e-03  -5.5961668e-03
  -6.3178381e-03  -1.9129014e-02
   2.2364381e-03   5.5711238e-04
  -5.0602044e-03   3.9250674e-03
   4.7682568e-03  -1.7816399e-03
   2.1373478e-03  -8.9168792e-04
   3.1113338e-03  -6.1818995e-03
   4.6860355e-03  -4.1786936e-03
   7.2208192e-03   8.4618127e-03
  -7.0507909e-03  -6.0965721e-03
   5.5167926e-03  -8.2899300e-03
  -8.1700533e-03  -2.2953788e-02
   4.1284438e-03   1.0151864e-03
  -5.3621720e-03   3.2741254e-03
   5.6420905e-03  -4.1339085e-03
  -3.6865879e-04  -2.3536227e-04
   3.6233404e-03  -3.2300064e-04
   3.0319741e-03  -2.7056115e-03
   8.2976360e-03   8.3815525e-03
  -6.3596146e-03  -4.6443965e-03
   6.1977985e-03  -6.1263383e-03
  -7.6880681e-03  -2.1620679e-02
   5.1184280e-03   3.0585229e-03
  -5.8720981e-03   2.1459323e-03
   6.0725999e-03  -5.5809001e-03
  -2.9232620e-03   1.0349727e-04
   4.0357224e-03   4.5354184e-03
   1.2979840e-03  -9.5065348e-04
   8.7881146e-03   9.0226702e-03
  -5.6358468e-03  -3.2994299e-03
   6.5695811e-03  -1.7155242e-03
  -5.6474728e-03  -1.7073538e-02
   5.2520722e-03   5.2812788e-03
  -6.5170275e-03   8.8796435e-04
   6.1819271e-03  -6.1407533e-03
  -5.1046463e-03   1.7231000e-04
   4.2555613e-03   7.4957461e-03
  -3.5865073e-04   1.2187002e-03
   8.6983224e-03   9.9977982e-03
  -5.0930689e-03  -3.7352327e-03
   6.4365428e-03   2.3320775e-03
  -2.7618347e-03  -1.1077388e-02
   4.6091668e-03   6.4674741e-03
  -7.1888700e-03  -1.4626279e-04
   6.0815760e-03  -5.8810260e-03
  -6.6563125e-03   7.0191115e-05
   4.2758436e-03   8.2686482e-03
  -1.8414279e-03   3.8003724e-03
   8.0968857e-03   1.1043411e-02
  -4.8186078e-03  -6.7524011e-03
   5.6946518e-03   4.1128604e-03
   3.7186248e-04  -4.9999561e-03
   3.3302995e-03   5.9004259e-03
  -7.7741595e-03  -6.7999581e-04
   5.8623926e-03  -4.9206975e-03
  -7.4705287e-03  -1.1024276e-04
   4.1596022e-03   7.1106909e-03
  -3.1157625e-03   6.6687985e-03
   7.1050656e-03   1.2025434e-02
  -4.7503998e-03  -1.2040520e-02
   4.3910964e-03   2.8968031e-03
   3.3063656e-03   3.0642859e-04
   1.6244321e-03   3.5261727e-03
  -8.1808410e-03  -5.7421957e-04
   5.5888240e-03  -3.4240004e-03
  -7.5605898e-03  -3.2611895e-04
   4.0113395e-03   4.6829205e-03
  -4.2004193e-03   9.6139124e-03
   5.8804114e-03   1.2920463e-02
  -4.7018182e-03  -1.8294417e-02
   2.7315625e-03  -7.7690781e-04
   5.7521267e-03   4.5015603e-03
  -2.4769472e-04  -7.5214661e-05
  -8.3575070e-03   1.4718305e-04
   5.2981027e-03  -1.5880107e-03
  -7.0280536e-03  -6.0114126e-04
   3.9417860e-03   1.8570500e-03
  -5.1514347e-03   1.2397172e-02
   4.5960054e-03   1.3779455e-02
  -4.4275000e-03  -2.3642862e-02
   1.0335760e-03  -5.3917155e-03
   7.5621005e-03   7.6449752e-03
  -2.0113253e-03  -3.8989169e-03
  -8.3022768e-03   1.3124856e-03
   5.0040393e-03   3.7404665e-04
  -6.0307438e-03  -1.0121006e-03
   4.0339001e-03  -4.9488812e-04
  -6.0420618e-03   1.4809609e-02
   3.4182302e-03   1.4683968e-02
  -3.7100418e-03  -2.6252801e-02
  -3.5883975e-04  -9.0315825e-03
   8.7003233e-03   1.0015393e-02
  -3.4263598e-03  -6.8401158e-03
  -8.0607978e-03   2.6511945e-03
   4.7042073e-03   2.2519702e-03
  -4.7556977e-03  -1.6498690e-03
   4.3176278e-03  -1.6891643e-03
  -6.9428111e-03   1.6717041e-02
   2.4863250e-03   1.5705494e-02
  -2.4406410e-03  -2.4920184e-02
  -1.1721758e-03  -1.0058619e-02
   9.2040149e-03   1.1918809e-02
  -4.3327091e-03  -8.0357992e-03
  -7.7150606e-03   3.8623481e-03
   4.3887406e-03   3.8584990e-03
  -3.3987443e-03  -2.5669189e-03
   4.7587471e-03  -1.3641481e-03
  -7.9052009e-03   1.8082051e-02
   1.8966470e-03   1.6876001e-02
  -6.6836008e-04  -1.9465102e-02
  -1.2817403e-03  -7.6778888e-03
   9.1488162e-03   1.3540776e-02
  -4.6786429e-03  -7.1221225e-03
  -7.3663137e-03   4.6831022e-03
   4.0488869e-03   5.0482055e-03
  -2.1499469e-03  -3.7276229e-03
   5.2640281e-03   4.6228500e-04
  -8.9516118e-03   1.8959578e-02
   1.6937195e-03   1.8173642e-02
   1.3978584e-03  -1.0811697e-02
  -7.4685745e-04  -2.2165104e-03
   8.6240675e-03   1.4880718e-02
  -4.5231589e-03  -4.3334624e-03
  -7.1160695e-03   4.9400810e-03
   3.6837568e-03   5.7335341e-03
  -1.1824537e-03  -4.9780710e-03
   5.7013579e-03   3.4175849e-03
  -1.0072097e-02   1.9470613e-02
   1.8689846e-03   1.9523137e-02
   3.4359423e-03  -7.3217122e-04
   2.0809500e-04   4.9638362e-03
   7.7208955e-03   1.5777886e-02
  -4.0109815e-03  -4.1897309e-04
  -7.0488762e-03   4.5723664e-03
   3.3042695e-03   5.8961309e-03
  -6.4185295e-04  -6.0487953e-03
   5.9304055e-03   6.8715163e-03
  -1.1227553e-02   1.9764277e-02
   2.3669493e-03   2.0807123e-02
   5.0928408e-03   8.6618266e-03
   1.2612705e-03   1.1886952e-02
   6.5315609e-03   1.6008850e-02
  -3.3269873e-03   3.5914347e-03
  -7.2194944e-03   3.6240853e-03
   2.9338436e-03   5.5914905e-03
  -6.3368040e-04  -6.5963872e-03
   5.8375770e-03   1.0082741e-02
  -1.2357579e-02   1.9980800e-02
   3.0972152e-03   2.1883024e-02
   6.0777497e-03   1.5520240e-02
   2.0889659e-03   1.6577799e-02
   5.1550066e-03   1.5414395e-02
  -2.6430853e-03   6.6947577e-03
  -7.6457400e-03   2.2134042e-03
   2.6058130e-03   4.9448302e-03
  -1.2079692e-03  -6.2798669e-03
   5.3678179e-03   1.2364349e-02
  -1.3390826e-02   2.0226166e-02
   3.9499320e-03   2.2599953e-02
   6.2384243e-03   1.8761170e-02
   2.4597581e-03   1.7677286e-02
   3.7019112e-03   1.4005881e-02
  -2.0729813e-03   8.1989114e-03
  -8.3068754e-03   4.9084117e-04
   2.3581316e-03   4.1367143e-03
  -2.3417360e-03  -4.8576599e-03
   4.5455400e-03   1.3234855e-02
  -1.4255712e-02   2.0564003e-02
   4.8120059e-03   2.2811968e-02
   5.5976383e-03   1.8327653e-02
   2.2980739e-03   1.4861558e-02
   2.2935044e-03   1.2009907e-02
  -1.6480562e-03   7.8958626e-03
  -9.1463365e-03  -1.3984693e-03
   2.2266329e-03   3.3786029e-03
  -3.9231154e-03  -2.2841543e-03
   3.4789827e-03   1.2525243e-02
  -1.4890081e-02   2.1023291e-02
   5.5815642e-03   2.2386556e-02
   4.3392557e-03   1.5119353e-02
   1.6979776e-03   8.9342688e-03
   1.0515344e-03   9.8321196e-03
  -1.3212090e-03   6.0738472e-03
  -1.0077203e-02  -3.3371540e-03
   2.2384757e-03   2.8806602e-03
  -5.7431093e-03   1.2181450e-03
   2.3459859e-03   1.0422184e-02
  -1.5249258e-02   2.1614090e-02
   6.1786738e-03   2.1209851e-02
   2.7490750e-03   1.0627150e-02
   8.8388711e-04   1.5645914e-03
   8.0843596e-05   7.9489240e-03
  -9.9690658e-04   3.3711247e-03
  -1.0989007e-02  -5.2380899e-03
   2.4073408e-03   2.8162999e-03
  -7.5017682e-03   5.1332179e-03
   1.3630709e-03   7.4398457e-03
  -1.5312698e-02   2.2339994e-02
   6.5512341e-03   1.9191934e-02
   1.1295150e-03   6.3929232e-03
   1.3166805e-04  -5.2436336e-03
  -5.5041706e-04   6.7609023e-03
  -5.7761096e-04   5.2499888e-04
  -1.1755070e-02  -7.0306955e-03
   2.7316149e-03   3.2896141e-03
  -8.8344767e-03   8.6890732e-03
   7.4301816e-04   4.3252421e-03
  -1.5089760e-02   2.3196757e-02
   6.6758311e-03   1.6275702e-02
  -2.8480515e-04   3.4727854e-03
  -3.2400113e-04  -9.7803796e-03
  -8.2609233e-04   6.4560505e-03
  -1.1681055e-05  -1.8961484e-03
  -1.2240399e-02  -8.6416740e-03
   3.1962108e-03   4.3123726e-03
  -9.3607524e-03   1.0964855e-02
   6.4846605e-04   1.9128894e-03
  -1.4624946e-02   2.4151389e-02
   6.5539555e-03   1.2450868e-02
  -1.3837833e-03   2.0822697e-03
  -3.6570299e-04  -1.1152138e-02
  -7.8656536e-04   6.9298196e-03
   6.7278439e-04  -3.6839260e-03
  -1.2310699e-02  -9.9840051e-03
   3.7779376e-03   5.7963885e-03
  -8.7539346e-03   1.1061790e-02
   1.1499654e-03   9.5176995e-04
  -1.4002407e-02   2.5103527e-02
   6.2044082e-03   7.7715009e-03
  -2.1925327e-03   1.5460851e-03
  -2.7550658e-05  -9.5271475e-03
  -5.1895360e-04   7.7928349e-03
   1.3597154e-03  -5.0339474e-03
  -1.1843073e-02  -1.0966104e-02
   4.4536600e-03   7.5649585e-03
  -6.8256452e-03   8.3197113e-03
   2.1962864e-03   1.9306087e-03
  -1.3348813e-02   2.5838600e-02
   5.6530096e-03   2.3724177e-03
  -2.8319608e-03   5.8039466e-04
   5.2469002e-04  -6.0169241e-03
  -1.3336274e-04   8.4709472e-03
   1.8664012e-03  -6.4191435e-03
  -1.0738611e-02  -1.1526764e-02
   5.2098959e-03   9.3840598e-03
  -3.6141959e-03   2.5508315e-03
   3.6032371e-03   4.9273931e-03
  -1.2833151e-02   2.5987729e-02
   4.9209914e-03  -3.5218334e-03
  -3.4407854e-03  -2.1687465e-03
   1.0631122e-03  -2.2204088e-03
   2.7017946e-04   8.3738937e-03
   1.9895354e-03  -8.3233951e-03
  -8.9362640e-03  -1.1692644e-02
   6.0519371e-03   1.1010250e-02
   5.3702443e-04  -5.7445385e-03
   5.0647689e-03   9.5062166e-03
  -1.2661785e-02   2.5010520e-02
   4.0135812e-03  -9.6012649e-03
  -4.0829919e-03  -7.4890921e-03
   1.3964496e-03   4.3763244e-04
   6.3628489e-04   7.0871343e-03
   1.5638032e-03  -1.0912181e-02
  -6.4264654e-03  -1.1646392e-02
   7.0103440e-03   1.2248635e-02
   4.9256540e-03  -1.5218305e-02
   6.1864725e-03   1.4678444e-02
  -1.3067442e-02   2.2213215e-02
   2.9101944e-03  -1.5491520e-02
  -4.6700659e-03  -1.5060810e-02
   1.4676920e-03   1.3760685e-03
   9.8141045e-04   4.5333096e-03
   5.1686089e-04  -1.3739850e-02
  -3.2621794e-03  -1.1787753e-02
   8.1430280e-03   1.3011877e-02
   8.4749268e-03  -2.3603492e-02
   6.5382965e-03   1.8937820e-02
  -1.4291684e-02   1.6806832e-02
   1.5575878e-03  -2.0791143e-02
  -4.9236158e-03  -2.3178883e-02
   1.4192019e-03   1.3300332e-03
   1.4064314e-03   1.0576392e-03
  -1.0946761e-03  -1.5585973e-02
   4.3529203e-04  -1.2768985e-02
   9.5318583e-03   1.3370435e-02
   9.7672686e-03  -2.7752881e-02
   5.7212960e-03   2.0371739e-02
  -1.6561792e-02   7.9998992e-03
  -1.3295530e-04  -2.5119989e-02
  -4.3922213e-03  -2.8832903e-02
   1.6029712e-03   2.4775195e-03
   2.0910564e-03  -2.5870926e-03
  -3.0781721e-03  -1.4477735e-02
   4.4780357e-03  -1.5490319e-02
   1.1273471e-02   1.3584935e-02
   7.1292284e-03  -2.3796172e-02
   3.4414549e-03   1.6842536e-02
  -2.0064368e-02  -4.8890196e-03
  -2.2837095e-03  -2.8169869e-02
  -2.5202963e-03  -2.8133945e-02
   2.5297284e-03   8.1720275e-03
   3.2714426e-03  -5.3519723e-03
  -5.1285349e-03  -7.9023579e-03
   8.6219496e-03  -2.1049986e-02
   1.3464766e-02   1.4114067e-02
  -1.2386257e-03  -7.4091109e-03
  -4.1771039e-04   6.2238832e-03
  -2.4919079e-02  -2.2319723e-02
  -5.0434385e-03  -2.9746261e-02
   1.2485598e-03  -1.6977237e-02
   4.7685541e-03   2.2349712e-02
   5.2068905e-03  -6.0690381e-03
  -6.8756818e-03   6.8408992e-03
   1.2585455e-02  -3.0654077e-02
   1.6184376e-02   1.5595043e-02
  -1.7099960e-02   2.5828938e-02
  -5.7326186e-03  -1.3330463e-02
  -3.1156466e-02  -4.4441193e-02
  -8.5751880e-03  -2.9790297e-02
   7.3612573e-03   8.2385442e-03
   8.8230253e-03   4.8775653e-02
   8.1443471e-03  -3.6459002e-03
  -7.9429038e-03   3.2239473e-02
   1.6074545e-02  -4.5501017e-02
   1.9471988e-02   1.8797874e-02
  -4.2007754e-02   8.0025547e-02
  -1.2095952e-02  -4.3114774e-02
  -3.8703458e-02  -7.1041538e-02
  -1.3039622e-02  -2.8373535e-02
   1.6067346e-02   5.0028921e-02
   1.5016601e-02   9.0341037e-02
   1.2289870e-02   2.7731757e-03
  -8.0008302e-03   7.0220634e-02
