  -4.8864290e-02   2.0230818e-02  -1.4357374e-02   9.0464865e-02   3.8888216e-02  -1.5259320e-01   4.3540562e-02   1.3012876e-02  -6.0254181e-02  -5.5544579e-02  -4.1445209e-03  -1.0433974e-02  -1.9583514e-01  -8.4916602e-03  -2.6944928e-01  -1.1313833e-02  -2.8033486e-01   2.5381257e-01   4.3643380e-02   3.6582343e-01  -6.8715702e-01   1.1491425e-01   4.2187673e-01   1.5937445e-01  -7.0486579e-01  -1.4183354e-02
   1.5060759e-02  -2.8087254e-02  -6.7151488e-03  -4.9272070e-02   5.9198751e-02   4.3190290e-02  -1.5463077e-01  -2.9168363e-02  -1.7088109e-01   3.2616066e-01  -8.5400166e-02  -2.2808663e-01  -1.3963728e-01  -2.0302182e-01   2.0332264e-01  -1.0489094e-01   5.5551724e-01   1.2402958e-01   2.2036322e-01   8.1045320e-01   4.1165093e-02   3.3131118e-01   4.0633161e-01  -2.8133121e-01  -4.0424438e-01   3.6064054e-02
  -2.5480089e-02  -3.5936240e-02  -2.4765869e-02  -5.4455234e-02   9.9362293e-03  -9.8992761e-02   1.1476203e-01   6.2986128e-03  -4.9257251e-02   1.8829737e-01  -3.6025786e-02   2.5795422e-01  -5.1562617e-01   2.7853088e-01   1.8550615e-02   1.4108069e-01   7.0759121e-01   4.5365589e-01   5.5058681e-01   3.0128988e-01  -4.5864076e-01   4.8828997e-02   4.3665611e-01   2.0890007e-01   6.7825486e-01   1.9567988e-01
   3.5875356e-02  -5.0420365e-03   7.0022293e-03   4.7601545e-03  -9.1386351e-02  -5.8593596e-03  -1.2914106e-01   1.0202893e-01   2.0218044e-01  -1.2507018e-01   3.3235903e-02  -1.1489547e-01  -1.8449594e-01   3.0807059e-01  -6.8961697e-03   2.0254573e-01  -4.3271122e-01   5.1218006e-01  -4.5686182e-01   3.4603474e-02  -8.2438270e-02  -4.2718147e-01   2.1659118e-01  -3.2480529e-01  -2.5549085e-01  -3.1601903e-01
  -1.0524394e-02   1.8430348e-02   2.7161524e-02  -4.0886236e-02  -9.6621317e-03   5.6643796e-02  -2.1170322e-01  -1.5514375e-01   5.7022898e-02   2.3185595e-01  -1.6653039e-02   2.8199698e-01   8.3375876e-02   3.6147582e-01   3.9487935e-01  -9.5375238e-02   1.1146490e-01   1.0297450e-01   6.0845919e-02   1.7994386e-01   1.0992092e+00  -6.0593008e-01  -5.2666307e-01   9.2196772e-02   6.0283369e-01   2.7198515e-02
   1.1975736e-02  -2.8249824e-02   3.6184326e-02   2.1486911e-02   1.3260659e-01   1.4368376e-02  -5.7067750e-03  -2.2041010e-01  -8.7218680e-02   3.0562849e-02  -6.9126401e-02  -2.5771007e-01  -2.1714787e-01  -2.4533650e-01   9.4575959e-03   1.9322104e-01   5.8862178e-01   3.1734487e-01  -1.1535385e-01  -5.5688738e-01   6.6915444e-01  -5.9785454e-01  -3.7125759e-01   7.7282406e-01  -9.2148805e-01  -3.6201180e-01
  -3.5139230e-02  -1.3638092e-01  -2.3322974e-02   6.6633186e-02   9.0076554e-02  -3.4043159e-02   1.4655337e-01  -3.3484109e-01   3.4946475e-01  -9.1296190e-02  -1.8634829e-02  -5.5357463e-01   7.3987360e-02  -8.3498872e-02  -2.1892753e-01  -2.6334639e-01   3.4223149e-01   5.7556973e-01   1.3345925e-01   1.3775996e-01   4.8768683e-01  -1.9434854e-01   8.6237604e-01   6.2857770e-01   7.1448697e-01  -1.0103933e+00
  -5.7696397e-02   2.2481115e-03   1.5214402e-01   3.1153795e-03   8.4892964e-02   3.5563076e-01   2.3577037e-01  -1.3308132e-01  -7.3698645e-02  -1.3956687e-01   2.5911485e-01  -2.2129698e-01   1.0867320e-01  -9.3959085e-02  -1.4291418e-02  -3.0191241e-02  -2.6874262e-01   4.8782516e-01  -5.9245483e-01  -2.0828496e-01   2.5497037e-01   5.1492602e-01   2.5254249e-01  -8.1937463e-01   3.4656949e-01  -1.5645288e-01
   1.1927218e-01   5.3016504e-03   1.1129099e-01   1.8653587e-01   1.0151652e-01  -2.0468494e-01   4.2281985e-02  -4.1186390e-02   3.1076031e-01   2.6072056e-01  -4.6529458e-01   2.0330113e-01  -2.6757070e-02   2.5710247e-01  -1.7432787e-01  -3.1946018e-01   3.0105214e-01  -3.3981875e-01  -1.3660673e-01   8.8240892e-03   1.1483050e-01   8.0716877e-01  -8.3195159e-01  -1.0097778e+00  -1.5953613e+00   9.3835297e-02
  -4.4654346e-03  -9.2771063e-03   1.6631714e-02  -1.3449758e-01   1.3168674e-01  -1.1449739e-02  -2.2022168e-01   6.4704098e-01   1.2562366e-01  -5.1646969e-02  -1.8765967e-01  -1.9080486e-02  -4.0042988e-01   4.2051584e-01   3.7735278e-01   8.1607235e-02  -3.1151589e-01  -1.4526981e-01   4.3705473e-01  -3.4038772e-02   4.3590552e-01  -1.3933199e-01   8.9633274e-01   4.1240155e-01   2.1809781e-01  -9.6609622e-01
  -3.8818066e-02   1.8137674e-02  -1.4131051e-02   6.4557701e-02   3.1891799e-02  -1.1772104e-01   2.2469754e-02  -2.5166319e-03  -5.2546776e-02  -2.6222437e-02  -2.9920184e-03   1.9560509e-03  -1.6551495e-01   1.0602507e-02  -1.8605365e-01  -1.0082799e-02  -2.2695302e-01   2.0620885e-01   6.8464781e-02   3.3438698e-01  -4.9296234e-01   9.2093387e-02   3.6063818e-01   7.5007752e-02  -4.8958479e-01   3.1647436e-03
   1.0576392e-02  -2.3767148e-02  -9.9574226e-03  -3.9794813e-02   5.5866986e-02   3.0508691e-02  -1.3125279e-01  -1.7398712e-02  -1.5823831e-01   2.8155191e-01  -6.3825402e-02  -2.0103748e-01  -1.2243493e-01  -1.6705330e-01   1.5135489e-01  -1.0505636e-01   4.8329712e-01   1.2555501e-01   1.4375158e-01   7.3418055e-01  -6.5828565e-04   2.4855104e-01   3.3911405e-01  -2.1826728e-01  -3.1005423e-01   5.5345656e-02
  -1.5308116e-02  -2.9798179e-02  -2.4091346e-02  -4.5221151e-02   9.8870268e-03  -8.1074302e-02   9.2429947e-02   1.4343307e-02  -3.4777194e-02   1.3676389e-01  -2.6916523e-02   1.9085289e-01  -4.3431268e-01   1.8443669e-01   1.9740820e-02   1.2990346e-01   4.9515754e-01   3.8394663e-01   3.5301216e-01   2.2016013e-01  -3.8034726e-01   5.6176451e-02   3.3027280e-01   7.0270975e-02   4.5298574e-01   1.2143571e-01
   9.4821729e-03  -2.6582572e-03   2.8366831e-03  -8.6625100e-05  -3.9854227e-02  -4.9920838e-03  -2.8827684e-02   4.8932806e-02   8.9096827e-02  -4.9331115e-02  -4.1686736e-03   9.7882958e-03  -7.4742079e-02   1.2503535e-01   7.5989973e-03   8.9810693e-02  -1.2028823e-01   1.5496257e-01  -1.2337545e-01  -3.3857102e-02  -8.3022004e-02  -1.3601141e-01   1.1057620e-03  -1.1261104e-01  -1.2203819e-02  -6.7102345e-02
  -7.0801716e-03   1.4292016e-02   1.1682231e-02  -9.6821819e-03  -2.3892986e-02   1.8685630e-02  -1.1384746e-01  -2.8778041e-02   4.8930137e-02   9.4935691e-02   5.0470929e-03   1.4210570e-01   6.7979669e-02   1.9762122e-01   1.6838264e-01  -6.8341048e-02  -8.6445714e-02  -2.4628774e-02   1.9532381e-02   2.0649039e-01   3.7958874e-01  -2.2589766e-01  -1.7596418e-01  -3.3848464e-02   3.3807013e-01   3.7310066e-02
   9.7707026e-03  -1.8967709e-02   1.3736640e-02   9.0246239e-03   5.1382159e-02   5.5504550e-03   3.1654543e-02  -8.6839573e-02  -8.7171603e-02  -2.0013750e-02  -3.2780196e-02  -1.6129125e-01  -9.3045681e-02  -1.5670334e-01  -6.0856539e-02   9.9001978e-02   2.5070827e-01   9.0305072e-02  -6.5853975e-02  -2.6387249e-01   7.5930250e-02  -1.5984468e-01  -1.0500422e-01   3.5342598e-01  -3.9340357e-01  -1.8460834e-01
  -3.2721338e-02  -1.1168756e-01  -1.8167657e-02   5.3878988e-02   4.7073631e-02  -9.0152542e-03   8.5925819e-02  -2.8629094e-01   2.7194641e-01  -1.1567175e-01  -2.4196402e-02  -4.3132733e-01   1.0516052e-01  -2.5445077e-02  -8.6222534e-02  -1.9818564e-01   1.8875211e-01   3.3123011e-01   1.6874756e-01   1.4373865e-01   3.4679336e-01  -1.3713938e-01   5.2967455e-01   3.7833894e-01   3.8157976e-01  -5.6281796e-01
  -4.2370113e-02   1.8273717e-03   1.1674159e-01   1.3959175e-02   7.0364928e-02   2.6010223e-01   1.5832498e-01  -1.8309621e-01  -4.8838137e-02  -3.4730261e-02   1.3050355e-01  -8.0652535e-02   1.1764462e-01  -1.5393361e-01  -7.2822328e-02  -3.5018306e-02  -1.6864965e-01   3.0580315e-01  -3.6190872e-01  -5.4652729e-02   5.6574204e-03   2.7672979e-01  -5.1651653e-02  -5.3087950e-01   4.5681984e-02   4.3213406e-02
   8.8366830e-02   9.1784309e-03   9.1401451e-02   1.3276291e-01   7.3396990e-02  -1.3409591e-01   3.1518801e-02   1.0329530e-02   2.0279450e-01   2.0552620e-01  -3.6387953e-01   1.4722613e-01  -6.1400335e-02   1.7311960e-01  -1.8568755e-01  -2.4066551e-01   2.4890753e-01  -1.3821840e-01  -6.7244776e-02  -3.6945237e-02   3.0773443e-02   4.0353165e-01  -4.8206431e-01  -6.1139944e-01  -7.7344121e-01   4.1379982e-02
  -2.3789255e-03  -7.1978701e-03   2.5588176e-02  -9.4763260e-02   1.0014734e-01  -4.9219466e-02  -1.7753181e-01   4.4536904e-01   9.6819727e-02  -3.4892315e-02  -1.6264237e-01   8.8445636e-02  -2.2644694e-01   2.3319908e-01   1.9858885e-01   7.1694933e-02  -6.7787715e-02  -1.4826403e-01   3.1776933e-01  -2.0705961e-02   2.5234544e-01  -2.2051950e-01   2.6799768e-01   2.7105340e-01   7.3753136e-03  -3.8315720e-01
  -2.9551202e-02   1.5162037e-02  -1.3566104e-02   4.4773384e-02   2.8663845e-02  -8.8018248e-02   9.3859909e-03  -1.0781296e-02  -4.4509371e-02  -8.0041476e-03  -2.8953887e-03  -4.5821875e-04  -1.4128444e-01   1.5994530e-02  -1.2558854e-01  -3.7026968e-03  -1.7486839e-01   1.6544090e-01   8.6549927e-02   2.9354298e-01  -3.4302484e-01   7.7389141e-02   3.1271169e-01   8.8754062e-03  -3.4249967e-01   2.0974500e-02
   7.4550891e-03  -1.9609422e-02  -1.2824478e-02  -3.1116821e-02   4.7865255e-02   2.0511475e-02  -1.1322154e-01  -1.8530922e-03  -1.4275508e-01   2.3550672e-01  -4.2508956e-02  -1.7771042e-01  -1.0828376e-01  -1.2406650e-01   1.0490297e-01  -9.8243718e-02   3.9984421e-01   1.3686951e-01   6.5666114e-02   6.5710203e-01  -3.7793124e-02   1.6998911e-01   2.9172361e-01  -1.7920546e-01  -2.2090224e-01   6.6343364e-02
  -8.1573033e-03  -2.3596005e-02  -2.2618609e-02  -3.8253516e-02   1.1317919e-02  -6.4001953e-02   7.3879125e-02   1.5227367e-02  -2.5929582e-02   9.7173431e-02  -2.0586688e-02   1.4192451e-01  -3.4926435e-01   1.0540279e-01   2.6264098e-02   1.1449447e-01   3.2915740e-01   3.0970006e-01   2.0084487e-01   1.5376277e-01  -2.8863216e-01   5.8590073e-02   2.2417506e-01  -4.0469756e-02   2.7237650e-01   7.0683070e-02
  -6.2866462e-03  -1.2763534e-03   8.1219090e-04  -1.7763038e-03  -1.0875506e-02  -8.0509484e-03   3.8181945e-02   1.2944442e-02   2.1436688e-02  -1.0354916e-02  -2.0312159e-02   8.9657488e-02  -5.9201214e-03   1.4820643e-02   7.0039405e-03   2.5451525e-02   5.9174449e-02  -5.2911643e-02   7.2742474e-02  -8.7468971e-02  -8.1981041e-02   2.4499558e-02  -1.1484537e-01   3.9750008e-02   1.3701949e-01   8.3183813e-02
  -5.8941527e-03   1.1658593e-02   2.3417927e-03   1.5736134e-02  -2.9191109e-02  -6.5286557e-03  -4.6829365e-02   4.7511210e-02   4.0159142e-02   1.2234460e-03   1.5794796e-02   3.8675290e-02   4.9466163e-02   7.3149359e-02   1.1076605e-02  -4.5421611e-02  -1.9499522e-01  -8.1119349e-02  -5.0764861e-03   1.8772076e-01  -8.7113207e-02   1.4612692e-02   5.6680865e-02  -8.5899820e-02   7.9767609e-02   4.4464037e-02
   8.7490197e-03  -1.2137702e-02  -1.0471907e-03  -9.6863590e-04  -5.0722545e-03   9.7246022e-04   4.7649591e-02  -2.5363515e-04  -8.2726972e-02  -4.3488494e-02  -1.1616940e-02  -7.5710443e-02  -3.7742123e-03  -8.4087932e-02  -8.4209169e-02   3.0670197e-02   3.9472070e-02  -4.0252602e-02  -2.4385634e-02  -6.4567531e-02  -2.6344650e-01   1.1144981e-01   5.0872499e-02   6.5069945e-02  -3.2719075e-02  -6.3370191e-02
  -2.9142496e-02  -8.9071991e-02  -1.3571175e-02   4.3303268e-02   1.1902114e-02   1.0024953e-02   3.6602840e-02  -2.3271807e-01   2.0342229e-01  -1.3039740e-01  -2.6882101e-02  -3.2522519e-01   1.1936957e-01   2.4170693e-02   2.3680712e-02  -1.3442169e-01   7.4736925e-02   1.3152096e-01   1.8157823e-01   1.3366273e-01   2.2619238e-01  -7.5036562e-02   2.6285189e-01   1.6875029e-01   1.1806902e-01  -2.1009799e-01
  -2.9541725e-02   2.2790945e-03   8.4087606e-02   2.0520556e-02   5.2888440e-02   1.7917678e-01   9.8618667e-02  -2.0117175e-01  -3.2040644e-02   4.1234337e-02   3.5527918e-02   1.1895306e-02   1.0848851e-01  -1.6482684e-01  -9.9255607e-02  -3.6990290e-02  -9.3694405e-02   1.6456145e-01  -1.8086779e-01   4.8332435e-02  -1.4308961e-01   9.9210194e-02  -2.0645376e-01  -2.8675588e-01  -1.2698224e-01   1.3950713e-01
   6.2759880e-02   1.1817027e-02   7.2806453e-02   8.5376056e-02   4.9951560e-02  -7.6085675e-02   2.3253976e-02   4.8397709e-02   1.1243382e-01   1.5945346e-01  -2.6915741e-01   1.0146751e-01  -8.4304455e-02   9.6699838e-02  -1.8138932e-01  -1.6874542e-01   1.8843964e-01   6.8611692e-03  -2.0099414e-02  -6.7414090e-02  -3.3759240e-02   9.1561317e-02  -2.0293203e-01  -2.9356291e-01  -1.5060195e-01   1.1612524e-03
  -1.0673523e-03  -4.5328087e-03   2.9457696e-02  -6.2652465e-02   6.7245527e-02  -7.2964425e-02  -1.3211891e-01   2.8187119e-01   6.7470424e-02  -2.3721083e-02  -1.2501053e-01   1.4187070e-01  -1.0104674e-01   9.1590492e-02   6.3714576e-02   5.7188703e-02   1.0296508e-01  -1.3722540e-01   2.0611186e-01  -1.9641431e-02   1.1637482e-01  -2.3393491e-01  -1.3207986e-01   1.6849162e-01  -1.0508928e-01   2.2316912e-02
  -2.1434626e-02   1.1662384e-02  -1.2540778e-02   3.0228119e-02   2.8419724e-02  -6.2604379e-02   2.0876714e-03  -1.4382896e-02  -3.6961087e-02   2.4856379e-03  -3.7301447e-03  -1.2713608e-02  -1.2191036e-01   1.3118695e-02  -8.3124154e-02   5.7992178e-03  -1.2236178e-01   1.3279302e-01   9.9861516e-02   2.4484449e-01  -2.2419692e-01   6.5874251e-02   2.7255368e-01  -3.7456192e-02  -2.4770363e-01   3.8911345e-02
   5.1567098e-03  -1.5729145e-02  -1.5185649e-02  -2.3368163e-02   3.7183818e-02   1.3104950e-02  -9.8873559e-02   1.5147899e-02  -1.2680857e-01   1.9085979e-01  -2.2936103e-02  -1.5602936e-01  -9.5585979e-02  -7.9035597e-02   6.5690326e-02  -8.6981779e-02   3.1589602e-01   1.5112361e-01  -5.5918960e-03   5.7814432e-01  -6.6570486e-02   1.0024795e-01   2.5680955e-01  -1.5789771e-01  -1.3797461e-01   7.2829535e-02
  -3.4087565e-03  -1.7612816e-02  -2.0656902e-02  -3.3107167e-02   1.2952540e-02  -4.8633869e-02   5.8785220e-02   1.1958463e-02  -2.1268396e-02   6.6601310e-02  -1.5442597e-02   1.0671440e-01  -2.6502344e-01   4.3034548e-02   3.4624772e-02   9.7136815e-02   2.0104271e-01   2.3699082e-01   8.7240754e-02   1.0394479e-01  -1.9283413e-01   5.6890758e-02   1.2879098e-01  -1.2650754e-01   1.3238809e-01   3.6848186e-02
  -1.3770105e-02  -4.6692982e-04   2.9837849e-04  -1.5370721e-03   5.7704899e-04  -1.3518801e-02   7.7586238e-02  -8.5428386e-03  -9.4081910e-03   8.4353904e-04  -2.1174625e-02   1.3384520e-01   3.0466405e-02  -3.6574351e-02  -1.7865755e-03  -1.1710977e-03   1.3338064e-01  -1.4505192e-01   1.6283997e-01  -1.2798573e-01  -7.8436029e-02   8.8417062e-02  -1.5800193e-01   1.3273153e-01   2.1198159e-01   1.5298063e-01
  -6.4903974e-03   1.0311985e-02  -1.9452749e-03   3.5010754e-02  -2.8084440e-02  -2.1244380e-02  -6.1023727e-03   8.3254400e-02   3.1100649e-02  -5.5646128e-02   1.9146686e-02  -3.3380083e-02   2.9612030e-02  -1.3618252e-02  -8.8210477e-02  -2.6799308e-02  -2.3567928e-01  -8.7822152e-02  -1.5516850e-02   1.4015731e-01  -3.4416874e-01   1.4244026e-01   1.9462342e-01  -8.2919336e-02  -1.5032653e-01   4.8111961e-02
   8.6686872e-03  -7.5873054e-03  -9.3217933e-03  -8.9247599e-03  -3.9491121e-02  -1.6024070e-04   4.7166117e-02   4.7610125e-02  -7.4695188e-02  -4.6037291e-02  -2.3948575e-03  -5.6240007e-03   5.4293589e-02  -2.6926180e-02  -7.3277005e-02  -1.4771782e-02  -7.0920981e-02  -9.7358544e-02   6.2986946e-03   5.8185543e-02  -3.9994170e-01   2.4617558e-01   1.1734597e-01  -1.0981494e-01   1.9242841e-01   1.0034267e-02
  -2.4839850e-02  -6.8831093e-02  -9.5045867e-03   3.4624837e-02  -1.4864505e-02   2.3658062e-02  -1.5261134e-03  -1.7666970e-01   1.4455032e-01  -1.3610551e-01  -2.7482926e-02  -2.3519429e-01   1.1905348e-01   6.3967456e-02   1.0893216e-01  -7.4576257e-02  -3.7980874e-03  -2.3538848e-02   1.7584407e-01   1.1177959e-01   1.2397853e-01  -1.3335475e-02   5.8583242e-02   4.7405292e-04  -7.7346674e-02   5.3580881e-02
  -1.9127865e-02   3.0764917e-03   5.5510787e-02   2.3417516e-02   3.4570342e-02   1.1280764e-01   5.4906675e-02  -1.9369266e-01  -2.1473770e-02   9.0483642e-02  -2.9444625e-02   6.4602662e-02   8.8070909e-02  -1.4102050e-01  -1.0118462e-01  -3.6461850e-02  -4.2931790e-02   5.9372242e-02  -4.6336295e-02   1.0934351e-01  -2.1095804e-01  -2.5608451e-02  -2.4564351e-01  -9.0630286e-02  -1.9927359e-01   1.5816604e-01
   4.2181567e-02   1.3353453e-02   5.5677707e-02   4.4938075e-02   3.1188472e-02  -3.0599613e-02   1.7396633e-02   7.3896138e-02   3.9839818e-02   1.2218914e-01  -1.8335325e-01   6.5314560e-02  -9.6438635e-02   2.9919093e-02  -1.6484196e-01  -1.0522001e-01   1.2457205e-01   1.0152546e-01   9.0442731e-03  -8.4357897e-02  -7.8045222e-02  -1.3267341e-01   9.0639803e-03  -5.0068310e-02   2.8855036e-01  -2.7406185e-02
  -3.3541212e-04  -1.7326924e-03   2.9439355e-02  -3.7945228e-02   3.6091712e-02  -8.4694000e-02  -8.7311380e-02   1.5456678e-01   3.9277000e-02  -1.7270650e-02  -8.0353585e-02   1.5308307e-01  -1.7336754e-02  -1.0020967e-02  -3.1182807e-02   4.0340114e-02   2.0925312e-01  -1.1437706e-01   1.0700264e-01  -2.6783982e-02   1.9942036e-02  -1.9721824e-01  -3.4742345e-01   9.8171762e-02  -1.4370296e-01   2.7519041e-01
  -1.4712325e-02   7.9478435e-03  -1.1035726e-02   2.0004074e-02   3.0238078e-02  -4.0798145e-02  -1.2826205e-03  -1.5220225e-02  -3.0516448e-02   7.9855788e-03  -5.1791834e-03  -3.0375165e-02  -1.0619860e-01   6.6964606e-03  -5.4337838e-02   1.6677889e-02  -6.9184272e-02   1.0822059e-01   1.0987795e-01   1.9076189e-01  -1.2641503e-01   5.4476172e-02   2.3642361e-01  -6.4480240e-02  -1.8969337e-01   5.6240311e-02
   3.2913237e-03  -1.2243086e-02  -1.6929604e-02  -1.6602669e-02   2.5436693e-02   8.0252915e-03  -8.6841086e-02   3.1705585e-02  -1.1209314e-01   1.4961219e-01  -6.0639337e-03  -1.3466281e-01  -8.3298556e-02  -3.5802891e-02   3.4581248e-02  -7.3311770e-02   2.3929514e-01   1.6340654e-01  -6.4417678e-02   4.9701535e-01  -8.4899057e-02   4.2046576e-02   2.2915434e-01  -1.4837694e-01  -6.2712010e-02   7.7590918e-02
  -5.0581230e-04  -1.2086374e-02  -1.8473296e-02  -2.9362982e-02   1.3902535e-02  -3.5531661e-02   4.6776393e-02   7.0208508e-03  -1.9506684e-02   4.2544849e-02  -1.0392599e-02   8.1347841e-02  -1.8554443e-01  -2.2249699e-03   4.2341683e-02   7.9597420e-02   1.0336219e-01   1.7073541e-01   5.6717320e-03   7.1166068e-02  -1.0053888e-01   5.2232114e-02   5.1197719e-02  -1.9099168e-01   2.8201796e-02   1.4492471e-02
  -1.5328817e-02   8.2612576e-05   7.6408236e-04  -3.9857332e-04  -2.9977281e-04  -2.0012906e-02   9.5726139e-02  -1.8753137e-02  -1.2950020e-02  -6.5411489e-03  -1.2362722e-02   1.5170678e-01   4.3167520e-02  -4.4754065e-02  -1.3540762e-02  -6.4728539e-04   1.3182843e-01  -1.5554525e-01   1.7838081e-01  -1.5744508e-01  -7.1716481e-02   8.8212071e-02  -1.5363462e-01   1.7247895e-01   2.3198949e-01   1.6195499e-01
  -8.3159215e-03   9.9828939e-03  -2.4431005e-03   4.8247708e-02  -2.3128553e-02  -2.7787122e-02   1.3659123e-02   8.8720710e-02   2.2135794e-02  -8.3101927e-02   1.8189605e-02  -7.9363668e-02   1.0055167e-02  -6.6625452e-02  -1.4159264e-01  -1.2398667e-02  -2.2961482e-01  -6.4055430e-02  -1.4648349e-02   7.9128950e-02  -4.4056363e-01   1.8615708e-01   2.6205311e-01  -4.4476805e-02  -3.3692059e-01   4.8675766e-02
   9.2898560e-03  -5.0306134e-03  -1.2494388e-02  -1.5153453e-02  -5.5598474e-02   1.2418421e-03   3.5468321e-02   6.6017460e-02  -6.4194836e-02  -3.4246511e-02  -1.7956771e-03   4.6435325e-02   8.6187824e-02   1.5547295e-02  -4.0732893e-02  -4.1022601e-02  -1.0684602e-01  -1.0315287e-01   2.5009377e-02   1.2219553e-01  -3.8854010e-01   2.7777713e-01   1.1734978e-01  -1.9336313e-01   3.1337740e-01   4.5369841e-02
  -2.0216373e-02  -5.1164574e-02  -5.9425286e-03   2.7555477e-02  -3.3124817e-02   3.2567242e-02  -2.8993733e-02  -1.2077475e-01   9.5658899e-02  -1.3372875e-01  -2.6730159e-02  -1.6058469e-01   1.0704646e-01   9.3093890e-02   1.6910523e-01  -2.0711346e-02  -5.1462034e-02  -1.3571806e-01   1.5555354e-01   8.2154175e-02   3.8234594e-02   4.3283413e-02  -8.8345924e-02  -1.2714991e-01  -2.0901136e-01   2.3667268e-01
  -1.0991495e-02   3.8169034e-03   3.1921904e-02   2.3414395e-02   1.7168160e-02   6.0514195e-02   2.5073938e-02  -1.6750057e-01  -1.5293474e-02   1.1632617e-01  -6.8958125e-02   8.6261048e-02   6.2388670e-02  -9.6176353e-02  -8.5943408e-02  -3.3813757e-02  -1.3692335e-02  -1.5209029e-02   4.6170974e-02   1.3743794e-01  -2.1797434e-01  -1.0633673e-01  -2.0307706e-01   5.6789996e-02  -1.9919278e-01   1.2459406e-01
   2.6248820e-02   1.3941938e-02   4.0193037e-02   1.1720111e-02   1.6924764e-02   2.9180271e-03   1.3710703e-02   8.8083497e-02  -1.5514983e-02   9.3087562e-02  -1.0815719e-01   3.7825177e-02  -9.9091044e-02  -2.5637825e-02  -1.3945318e-01  -5.1148689e-02   6.1750299e-02   1.5312997e-01   2.4183690e-02  -8.9817237e-02  -1.0247317e-01  -2.7659969e-01   1.5940329e-01   1.2670929e-01   5.6444609e-01  -4.5616164e-02
  -1.0937674e-05   8.5185277e-04   2.6667376e-02  -2.0094562e-02   9.0424983e-03  -8.6713659e-02  -4.5988392e-02   6.0294167e-02   1.3806263e-02  -1.4453325e-02  -3.3880835e-02   1.3400546e-01   3.2023829e-02  -7.7596095e-02  -9.1250153e-02   2.3199385e-02   2.6125807e-01  -8.2673363e-02   2.4198528e-02  -3.8251180e-02  -4.4757762e-02  -1.2786256e-01  -4.2217629e-01   5.3534356e-02  -1.3170740e-01   4.0325548e-01
  -9.4971515e-03   4.2676883e-03  -9.1227697e-03   1.3203562e-02   3.3144428e-02  -2.2106701e-02  -2.1910858e-03  -1.4526669e-02  -2.5558156e-02   1.0561814e-02  -6.8283390e-03  -4.9651530e-02  -9.3070602e-02   4.7423572e-04  -3.5576684e-02   2.7520640e-02  -1.6278728e-02   9.0665296e-02   1.1753756e-01   1.3438753e-01  -4.2847597e-02   4.1794548e-02   2.0218225e-01  -7.4429580e-02  -1.5432760e-01   7.1989858e-02
   1.6136762e-03  -9.2547597e-03  -1.7978070e-02  -1.0812607e-02   1.3826444e-02   4.8803828e-03  -7.6090596e-02   4.6415151e-02  -9.9601279e-02   1.1294689e-01   7.6359664e-03  -1.1294810e-01  -7.0894953e-02   2.9994436e-03   1.1709862e-02  -5.8774628e-02   1.7493960e-01   1.7071385e-01  -1.0782252e-01   4.1414978e-01  -9.2226162e-02  -3.5585827e-03   2.0551428e-01  -1.4545748e-01   3.3828699e-03   8.2407428e-02
   1.0311102e-03  -7.2040796e-03  -1.6279170e-02  -2.6636714e-02   1.3664781e-02  -2.4965996e-02   3.7454859e-02   2.2987820e-03  -1.9568682e-02   2.3016974e-02  -4.8298534e-03   6.2631711e-02  -1.1403272e-01  -3.1050683e-02   4.7877279e-02   6.3113420e-02   2.9950634e-02   1.1449268e-01  -4.9891556e-02   5.4615490e-02  -1.7398855e-02   4.5943958e-02  -4.8307291e-03  -2.3679613e-01  -4.5516393e-02  -5.9282067e-04
  -1.3158423e-02   5.7393108e-04   1.7784925e-03   8.6409341e-04  -8.5627525e-03  -2.6362152e-02   9.9013268e-02  -2.1110725e-02   1.3341530e-03  -2.4045766e-02   1.2419160e-03   1.5206225e-01   4.0454453e-02  -2.5338516e-02  -2.4631039e-02   1.7060025e-02   8.3026271e-02  -1.1618389e-01   1.4845183e-01  -1.7795140e-01  -6.1654967e-02   5.2527798e-02  -1.2381635e-01   1.6945541e-01   2.1498634e-01   1.2968918e-01
  -1.0803887e-02   1.0376743e-02  -4.5235288e-04   5.5956380e-02  -1.6629050e-02  -2.8395128e-02   1.8025975e-02   7.3997789e-02   1.3629492e-02  -8.8862447e-02   1.5353322e-02  -1.0447296e-01  -7.9022026e-03  -9.1530123e-02  -1.6106434e-01  -1.9185118e-03  -1.9581999e-01  -2.6073900e-02  -5.4757801e-03   1.7600510e-02  -4.2603027e-01   1.7352776e-01   2.8187950e-01   1.1267108e-02  -4.7149012e-01   4.7077154e-02
   1.0378639e-02  -4.0991493e-03  -1.2069117e-02  -1.9857933e-02  -5.7690904e-02   4.2327337e-03   1.7697008e-02   6.4331082e-02  -5.2496177e-02  -1.4462453e-02  -6.7060770e-03   7.9993352e-02   9.7734275e-02   4.4293381e-02   1.8001348e-03  -5.2162110e-02  -9.3161494e-02  -7.7562056e-02   3.1970262e-02   1.4450193e-01  -2.8317932e-01   2.3997804e-01   7.3624114e-02  -2.0983559e-01   3.5915166e-01   5.2707354e-02
  -1.5620855e-02  -3.6170028e-02  -2.8714056e-03   2.1806302e-02  -4.3221418e-02   3.7502624e-02  -4.6706069e-02  -6.7550771e-02   5.6728508e-02  -1.2445966e-01  -2.5247598e-02  -1.0025764e-01   8.6376157e-02   1.1130380e-01   2.0511452e-01   2.5579366e-02  -7.3319105e-02  -2.0836251e-01   1.2464145e-01   4.8528736e-02  -3.2866070e-02   9.0990249e-02  -1.8460391e-01  -2.1608333e-01  -2.8369663e-01   3.4959092e-01
  -4.9451433e-03   4.2302317e-03   1.3794636e-02   2.1345726e-02   2.0005325e-03   2.1408944e-02   6.7479042e-03  -1.2942486e-01  -1.1819051e-02   1.2290092e-01  -8.8063766e-02   8.5596129e-02   3.6332842e-02  -4.2365288e-02  -6.0239327e-02  -2.9438431e-02  -2.0072037e-03  -6.4881093e-02   1.0228041e-01   1.4146670e-01  -1.8327205e-01  -1.5179416e-01  -1.1070037e-01   1.5747856e-01  -1.5306739e-01   6.2052588e-02
   1.4487798e-02   1.3751325e-02   2.6517302e-02  -1.4296239e-02   6.8050961e-03   2.5459143e-02   1.1842062e-02   9.2516834e-02  -5.4775398e-02   7.1212962e-02  -4.4674960e-02   1.7888016e-02  -9.3801694e-02  -6.8942120e-02  -1.0845226e-01  -7.1032059e-03   3.7418174e-03   1.6979085e-01   2.8949169e-02  -8.5972159e-02  -1.0849708e-01  -3.5040123e-01   2.5506668e-01   2.4536686e-01   7.0128483e-01  -5.5280413e-02
   5.0400835e-05   2.9795024e-03   2.2153199e-02  -8.2966522e-03  -1.2365061e-02  -8.1460165e-02  -1.0435497e-02  -4.9976683e-03  -7.6816815e-03  -1.4122046e-02   9.9067327e-03   9.5877252e-02   5.4448285e-02  -1.1700991e-01  -1.2247513e-01   7.4730591e-03   2.7010302e-01  -4.5513353e-02  -3.9892790e-02  -5.0623839e-02  -8.4933797e-02  -4.2071841e-02  -3.9860299e-01   2.8207490e-02  -8.9899195e-02   4.3512645e-01
  -5.7781555e-03   8.0653111e-04  -6.9436111e-03   8.9954565e-03   3.6202116e-02  -6.2007444e-03  -1.7082295e-03  -1.2969539e-02  -2.2232014e-02   1.1639953e-02  -8.2595686e-03  -6.7466374e-02  -8.1630136e-02  -2.9335579e-03  -2.3852110e-02   3.7269634e-02   3.4602695e-02   7.8412914e-02   1.2323630e-01   7.9090048e-02   3.0330159e-02   2.7766853e-02   1.6896144e-01  -7.0799309e-02  -1.2960298e-01   8.5096870e-02
   4.4278826e-06  -6.8424726e-03  -1.8294098e-02  -5.9467384e-03   3.1497203e-03   3.1979452e-03  -6.5926271e-02   5.8381164e-02  -8.9680260e-02   8.1330835e-02   1.8101415e-02  -9.0765657e-02  -5.8279965e-02   3.5898534e-02  -3.3662892e-03  -4.4432040e-02   1.2501590e-01   1.7174087e-01  -1.3513226e-01   3.3059089e-01  -8.9340406e-02  -3.6824648e-02   1.8429155e-01  -1.4507800e-01   5.8928216e-02   8.8117544e-02
   1.5977945e-03  -3.1004647e-03  -1.4223958e-02  -2.4584189e-02   1.2081749e-02  -1.6945782e-02   3.0418961e-02  -9.3646084e-04  -2.0616444e-02   6.5768024e-03   1.4231944e-03   4.8091742e-02  -5.2837457e-02  -4.5098261e-02   5.0501382e-02   4.8424068e-02  -2.4038806e-02   7.0397620e-02  -8.4852611e-02   5.2409960e-02   5.2859301e-02   3.9384320e-02  -3.8515588e-02  -2.6639610e-01  -9.4326261e-02  -1.1404015e-02
  -9.1384446e-03   1.1121029e-03   3.0065543e-03   1.7467269e-03  -1.9879683e-02  -3.1665098e-02   9.3400062e-02  -1.8862687e-02   2.4848939e-02  -4.4669240e-02   1.5723678e-02   1.4260336e-01   2.9511140e-02   7.4587696e-03  -3.2852448e-02   4.3128981e-02   1.2108478e-02  -5.4231889e-02   9.7721794e-02  -1.9144523e-01  -4.8743398e-02   4.5123123e-03  -8.6167111e-02   1.3674086e-01   1.7676566e-01   7.4256021e-02
  -1.3432722e-02   1.1198355e-02   2.8195347e-03   5.8962377e-02  -1.0426660e-02  -2.5082514e-02   1.2319651e-02   4.8204612e-02   5.9175898e-03  -8.0248493e-02   1.2330804e-02  -1.1357744e-01  -2.3403575e-02  -9.4998577e-02  -1.5762436e-01   5.1328812e-03  -1.4995180e-01   1.3612342e-02   9.0535149e-03  -3.4652828e-02  -3.4657774e-01   1.2933250e-01   2.7402537e-01   6.9170336e-02  -5.5194868e-01   4.4345560e-02
   1.1710914e-02  -4.3785013e-03  -9.4967163e-03  -2.3161109e-02  -5.0213860e-02   7.9059340e-03  -1.5735676e-03   5.1193802e-02  -4.0874578e-02   7.7563935e-03  -1.4428664e-02   9.6359709e-02   9.4959486e-02   6.0498222e-02   4.4573653e-02  -5.2313818e-02  -5.1566424e-02  -3.7289225e-02   2.8587608e-02   1.4020743e-01  -1.3231473e-01   1.6401341e-01   6.8644327e-03  -1.8322303e-01   3.5507711e-01   4.1484481e-02
  -1.1333485e-02  -2.3844897e-02  -2.9332062e-04   1.7096987e-02  -4.5888462e-02   3.9243716e-02  -5.5869539e-02  -1.9224527e-02   2.7393551e-02  -1.0968967e-01  -2.3516682e-02  -5.2699762e-02   6.0074737e-02   1.1898181e-01   2.1904124e-01   6.3172328e-02  -7.4691694e-02  -2.4610825e-01   8.6820381e-02   1.4196460e-02  -9.0971226e-02   1.2696936e-01  -2.3783764e-01  -2.6949477e-01  -3.0992206e-01   4.0397027e-01
  -7.5751274e-04   4.1755007e-03   1.1809053e-03   1.8041949e-02  -1.0096743e-02  -5.7499001e-03  -2.5704084e-03  -8.5838537e-02  -9.6623088e-03   1.1482140e-01  -9.1921837e-02   7.0721739e-02   1.3557272e-02   1.0594020e-02  -2.9875578e-02  -2.3722237e-02  -3.1209775e-03  -9.5179640e-02   1.2836693e-01   1.2954788e-01  -1.2403618e-01  -1.7059591e-01   3.1786835e-03   2.1566836e-01  -8.4026784e-02  -9.7606194e-03
   6.3596984e-03   1.2959651e-02   1.4784336e-02  -3.3399306e-02   3.3097972e-04   3.8365927e-02   1.1357414e-02   8.8955652e-02  -7.9603819e-02   5.5397100e-02   6.5896486e-03   4.2889625e-03  -8.2278598e-02  -9.9559521e-02  -7.4746576e-02   2.6832088e-02  -4.6501311e-02   1.5988277e-01   2.6505379e-02  -7.5029732e-02  -9.8524640e-02  -3.6616899e-01   3.0410227e-01   3.1500370e-01   7.2559177e-01  -5.8517405e-02
  -3.8437192e-05   4.5172256e-03   1.6746189e-02  -1.5704692e-03  -2.7405020e-02  -7.1339371e-02   1.7756264e-02  -4.5927698e-02  -2.4356316e-02  -1.5214372e-02   4.7458637e-02   4.8653340e-02   5.7077489e-02  -1.3380234e-01  -1.3127243e-01  -5.5730434e-03   2.4712830e-01  -6.4532816e-03  -8.4290904e-02  -6.1187075e-02  -1.0691445e-01   4.6181342e-02  -3.1491822e-01   1.6202284e-02  -3.5667122e-02   3.9835281e-01
  -3.4380179e-03  -2.3148968e-03  -4.6816403e-03   6.6511620e-03   3.8598300e-02   7.1203639e-03  -5.4161961e-04  -1.0790575e-02  -2.0463086e-02   1.2091591e-02  -9.1286592e-03  -8.1490577e-02  -7.1208291e-02  -2.0831450e-03  -1.6786643e-02   4.5220466e-02   8.1326949e-02   6.9456421e-02   1.2688152e-01   2.8156022e-02   9.4467034e-02   1.3241002e-02   1.3675847e-01  -5.7790296e-02  -1.0618886e-01   9.4530626e-02
  -1.5582104e-03  -5.0513290e-03  -1.7884608e-02  -1.9287681e-03  -6.1614248e-03   2.4755700e-03  -5.5961118e-02   6.7182153e-02  -8.2151062e-02   5.4678943e-02   2.5582349e-02  -6.8385091e-02  -4.5671937e-02   6.2420948e-02  -1.1504602e-02  -3.0918223e-02   8.9457839e-02   1.6654741e-01  -1.4751758e-01   2.4782213e-01  -7.8055400e-02  -5.8916335e-02   1.6509600e-01  -1.4445985e-01   1.0282723e-01   9.4758411e-02
   1.5073193e-03   1.4282058e-04  -1.2396309e-02  -2.2905023e-02   9.2753210e-03  -1.1265853e-02   2.5282315e-02  -1.9839513e-03  -2.2049846e-02  -7.6993426e-03   8.1975580e-03   3.5955029e-02  -3.4109816e-03  -4.6792875e-02   5.0118003e-02   3.5834617e-02  -6.2240751e-02   3.9218136e-02  -1.0392869e-01   6.1861008e-02   1.0825843e-01   3.3802245e-02  -5.1549693e-02  -2.8183856e-01  -1.2371779e-01  -1.9833445e-02
  -4.7296186e-03   1.7257611e-03   4.2006716e-03   1.9957418e-03  -3.0790361e-02  -3.5326744e-02   8.3943060e-02  -1.4784411e-02   5.0543509e-02  -6.3326113e-02   2.8252956e-02   1.2950075e-01   1.6001204e-02   4.1949027e-02  -3.7157613e-02   7.0286661e-02  -6.0916030e-02   9.0915854e-03   4.5051758e-02  -1.9949531e-01  -3.4125168e-02  -3.9153604e-02  -5.3171315e-02   8.8219226e-02   1.3034426e-01   1.1088634e-02
  -1.5774485e-02   1.2173544e-02   6.3620713e-03   5.8302385e-02  -5.7641656e-03  -1.9541179e-02   1.2055347e-03   1.8904517e-02  -7.0705918e-04  -6.3644850e-02   1.0103954e-02  -1.1109058e-01  -3.6058079e-02  -8.3943224e-02  -1.4064667e-01   9.3901354e-03  -1.0359743e-01   4.6505916e-02   2.6251339e-02  -7.1459143e-02  -2.4097332e-01   7.3762313e-02   2.5427352e-01   1.1816018e-01  -5.8175637e-01   4.1364587e-02
   1.3077426e-02  -5.4464539e-03  -6.0463858e-03  -2.5139265e-02  -3.7373074e-02   1.1459102e-02  -1.8680714e-02   3.3878633e-02  -3.0481414e-02   2.8032871e-02  -2.2810602e-02   9.8197555e-02   8.3559161e-02   6.5618157e-02   8.0257954e-02  -4.5333087e-02   4.9511550e-04   4.8127461e-03   1.7154419e-02   1.2166106e-01   2.4453036e-02   7.6379996e-02  -6.5667706e-02  -1.3514120e-01   3.2189572e-01   1.9843532e-02
  -7.5581503e-03  -1.4094711e-02   1.7746402e-03   1.3167556e-02  -4.2180322e-02   3.8561519e-02  -5.7901206e-02   2.2417527e-02   6.9643096e-03  -9.0931275e-02  -2.1855829e-02  -1.6152394e-02   3.1016878e-02   1.1711678e-01   2.1388319e-01   9.1412784e-02  -6.0944987e-02  -2.5453660e-01   4.5482705e-02  -1.8104980e-02  -1.3748222e-01   1.4951093e-01  -2.5619842e-01  -2.9160426e-01  -2.9726778e-01   4.1192120e-01
   1.8369589e-03   3.6269117e-03  -6.2433626e-03   1.4262299e-02  -1.8767329e-02  -2.2484462e-02  -5.3670654e-03  -4.2277333e-02  -7.8043445e-03   9.6814390e-02  -8.5440696e-02   4.8694184e-02  -3.5491525e-03   5.5539324e-02   4.3222994e-04  -1.7031738e-02  -1.2037104e-02  -1.1113627e-01   1.3114730e-01   1.0865102e-01  -5.4711652e-02  -1.7077369e-01   1.1523163e-01   2.3730704e-01  -1.0885432e-02  -7.5651540e-02
   1.2881516e-03   1.1747145e-02   5.0817547e-03  -4.6111713e-02  -3.1020970e-03   4.3230532e-02   1.1790552e-02   7.9258690e-02  -9.2059229e-02   4.4311080e-02   4.5718808e-02  -4.2226217e-03  -6.6302328e-02  -1.1765911e-01  -4.0820990e-02   5.1034568e-02  -8.6911102e-02   1.3156001e-01   1.9506689e-02  -5.9129270e-02  -7.5743046e-02  -3.3700800e-01   3.1515087e-01   3.4476596e-01   6.6470527e-01  -5.7536767e-02
  -1.9763133e-04   5.4301372e-03   1.1113689e-02   1.1595232e-03  -3.6086985e-02  -5.8579715e-02   3.7739506e-02  -6.7358108e-02  -3.5880204e-02  -1.6864897e-02   7.6319659e-02   5.5790998e-04   4.6483133e-02  -1.3302060e-01  -1.2407509e-01  -1.5163762e-02   2.0322005e-01   3.1065935e-02  -1.0940936e-01  -6.8096671e-02  -1.1595498e-01   1.2583422e-01  -2.0358909e-01   1.2102445e-02   1.7601162e-02   3.1788258e-01
  -2.2780910e-03  -5.0340326e-03  -2.5309315e-03   5.5682539e-03   3.9714273e-02   1.7968828e-02   9.0335545e-04  -7.9642488e-03  -1.9989825e-02   1.2356130e-02  -9.2175132e-03  -9.0140377e-02  -6.1379013e-02   3.3761851e-03  -1.2533713e-02   5.0998932e-02   1.2179380e-01   6.1827842e-02   1.2799594e-01  -1.5541277e-02   1.4916764e-01  -4.7894733e-04   1.0601655e-01  -3.9751425e-02  -7.7687421e-02   9.9399580e-02
  -3.0317898e-03  -3.8895872e-03  -1.6797683e-02   1.3265458e-03  -1.3971829e-02   2.2284405e-03  -4.6062481e-02   7.2796128e-02  -7.6468179e-02   3.2548611e-02   3.0535683e-02  -4.6306526e-02  -3.3469912e-02   8.2856750e-02  -1.3823040e-02  -1.8514939e-02   6.6548900e-02   1.5615144e-01  -1.4742765e-01   1.6756785e-01  -6.0826439e-02  -7.1497746e-02   1.4826428e-01  -1.4208351e-01   1.3440309e-01   1.0175972e-01
   9.9761084e-04   2.4947675e-03  -1.0831597e-02  -2.1346191e-02   5.5654018e-03  -7.5667304e-03   2.1687381e-02  -6.2812786e-04  -2.3483064e-02  -2.0294517e-02   1.5075495e-02   2.5089739e-02   3.3662599e-02  -3.9069485e-02   4.7080740e-02   2.5300893e-02  -8.7285982e-02   2.0514239e-02  -1.1115483e-01   7.9783903e-02   1.4826985e-01   3.0216041e-02  -4.7428031e-02  -2.8478272e-01  -1.3883444e-01  -2.6845966e-02
  -9.2703614e-04   2.3902117e-03   5.1905903e-03   1.5592691e-03  -3.8852860e-02  -3.7072046e-02   7.4499807e-02  -1.0994586e-02   7.3325399e-02  -7.6993873e-02   3.7088209e-02   1.1722195e-01   3.8444050e-03   6.9683486e-02  -3.7354192e-02   9.3078567e-02  -1.2213346e-01   5.9322531e-02   2.8763272e-03  -2.0314902e-01  -1.9427239e-02  -6.8477539e-02  -3.2102690e-02   3.6870840e-02   8.5558081e-02  -4.7781791e-02
  -1.7527287e-02   1.3066273e-02   9.4292284e-03   5.5110382e-02  -3.2403021e-03  -1.3084714e-02  -1.1590890e-02  -8.2437093e-03  -6.0048404e-03  -4.4152195e-02   9.0556723e-03  -1.0091510e-01  -4.5886858e-02  -6.4806210e-02  -1.1751759e-01   1.1557924e-02  -6.4136687e-02   6.7982933e-02   4.3854056e-02  -9.0232276e-02  -1.3849058e-01   2.1505849e-02   2.3373412e-01   1.5167236e-01  -5.6859859e-01   3.8784369e-02
   1.4291141e-02  -6.9083216e-03  -2.7134124e-03  -2.5859705e-02  -2.2814444e-02   1.4245288e-02  -3.1091900e-02   1.7859340e-02  -2.2237939e-02   4.3380365e-02  -3.0291757e-02   8.9008369e-02   6.8466036e-02   6.1414949e-02   1.0418534e-01  -3.4562308e-02   5.0326736e-02   3.9957131e-02   5.0605358e-04   9.8045553e-02   1.5840516e-01  -2.7052043e-03  -1.3097763e-01  -8.3209383e-02   2.7540958e-01  -5.7132261e-03
  -4.4215280e-03  -6.7463140e-03   3.3054041e-03   9.7911219e-03  -3.3387110e-02   3.6182751e-02  -5.4331370e-02   5.6135992e-02  -5.5319616e-03  -6.9731219e-02  -2.0415850e-02   1.1255960e-02   1.7901096e-03   1.0722345e-01   1.9325731e-01   1.1010722e-01  -3.7266039e-02  -2.3979559e-01   3.6461442e-03  -4.6269650e-02  -1.7351802e-01   1.5802937e-01  -2.4790000e-01  -2.8747686e-01  -2.5572228e-01   3.8533358e-01
   3.1264789e-03   2.6516390e-03  -9.1086381e-03   1.0639262e-02  -2.4086077e-02  -3.0508402e-02  -3.9788970e-03  -3.1533318e-03  -5.6190956e-03   7.3381887e-02  -7.2979140e-02   2.5200530e-02  -1.3798666e-02   8.8091090e-02   2.7151753e-02  -9.7110960e-03  -2.4039249e-02  -1.1703580e-01   1.1728465e-01   8.4327509e-02   1.3467496e-02  -1.5945384e-01   2.0797674e-01   2.2945993e-01   5.2503174e-02  -1.2534546e-01
  -1.3134790e-03   1.0288138e-02  -2.5600290e-03  -5.3142005e-02  -4.1626192e-03   4.1787596e-02   1.2690513e-02   6.5280636e-02  -9.4462656e-02   3.6548073e-02   7.3332244e-02  -8.8717824e-03  -4.7626852e-02  -1.2399096e-01  -8.6825963e-03   6.6293859e-02  -1.1630625e-01   9.2333520e-02   1.0100236e-02  -4.0266223e-02  -4.3892606e-02  -2.7616789e-01   2.9696817e-01   3.4343598e-01   5.4530761e-01  -5.4434608e-02
  -3.7955916e-04   5.7640406e-03   5.7386775e-03   9.8270524e-04  -3.9024001e-02  -4.5112266e-02   4.9403563e-02  -7.4092252e-02  -4.2408593e-02  -1.8481872e-02   9.5173405e-02  -4.2181657e-02   2.8425937e-02  -1.1914914e-01  -1.0694756e-01  -2.1026893e-02   1.4822917e-01   6.3959829e-02  -1.1692822e-01  -7.0442221e-02  -1.1616530e-01   1.8910561e-01  -9.0207676e-02   1.1258218e-02   6.0736697e-02   2.1497273e-01
  -2.0478146e-03  -7.3368912e-03  -6.6682485e-04   5.2808592e-03   3.9172538e-02   2.6409354e-02   2.4463113e-03  -4.3511604e-03  -2.0411103e-02   1.2575961e-02  -8.4559349e-03  -9.2546275e-02  -5.1944161e-02   1.2879117e-02  -9.6883284e-03   5.4516317e-02   1.5428089e-01   5.3867311e-02   1.2585736e-01  -4.9809465e-02   1.9310123e-01  -1.2051135e-02   7.7250411e-02  -2.0686492e-02  -4.0614555e-02   9.9047765e-02
  -4.3428647e-03  -3.3292270e-03  -1.5115815e-02   3.9012348e-03  -2.0360211e-02   2.0311754e-03  -3.6281789e-02   7.5502179e-02  -7.1894305e-02   1.4332059e-02   3.3524257e-02  -2.5116561e-02  -2.2125799e-02   9.7987253e-02  -1.1562960e-02  -7.2419060e-03   5.3575069e-02   1.4211131e-01  -1.3800787e-01   9.1587756e-02  -4.0358442e-02  -7.6373688e-02   1.3440539e-01  -1.3750739e-01   1.5349785e-01   1.0816782e-01
   2.4300434e-04   3.9708941e-03  -9.5232034e-03  -1.9704855e-02   1.3816562e-03  -5.3999455e-03   1.9312750e-02   2.9732986e-03  -2.4705399e-02  -3.1355056e-02   2.1493078e-02   1.4911940e-02   5.8583191e-02  -2.5092614e-02   4.2010153e-02   1.6533780e-02  -1.0106300e-01   1.2875049e-02  -1.0992931e-01   1.0281243e-01   1.7345614e-01   2.9319235e-02  -3.0720370e-02  -2.7660106e-01  -1.4424957e-01  -3.2708652e-02
   1.7296395e-03   3.0509997e-03   5.8743098e-03   5.2371776e-04  -4.2677613e-02  -3.6935574e-02   6.7585031e-02  -8.8842737e-03   9.0191822e-02  -8.4562153e-02   4.1478815e-02   1.0853938e-01  -4.7743357e-03   8.5719971e-02  -3.3826561e-02   1.0800014e-01  -1.6386427e-01   8.8672057e-02  -2.2606332e-02  -2.0288421e-01  -6.4464696e-03  -7.9641975e-02  -2.5528889e-02  -6.6724738e-03   4.8900618e-02  -9.4109093e-02
  -1.8529158e-02   1.3690598e-02   1.1566447e-02   5.0506033e-02  -2.8460596e-03  -6.6337052e-03  -2.3427020e-02  -2.9589370e-02  -9.7941431e-03  -2.5440601e-02   9.1379361e-03  -8.6435181e-02  -5.3219306e-02  -4.2980500e-02  -9.3529515e-02   1.2313531e-02  -3.5112061e-02   7.6798557e-02   6.0126278e-02  -9.1561710e-02  -5.8047933e-02  -1.8445651e-02   2.1891235e-01   1.6750046e-01  -5.2281614e-01   3.7079555e-02
   1.5196757e-02  -8.4257881e-03  -1.7032297e-04  -2.5417408e-02  -9.3967758e-03   1.5808550e-02  -3.7483975e-02   6.6262372e-03  -1.6757585e-02   5.2225266e-02  -3.5884633e-02   7.2605522e-02   5.3543242e-02   4.9957028e-02   1.1430345e-01  -2.2676713e-02   8.9898433e-02   6.3246856e-02  -1.8347155e-02   7.5366719e-02   2.5229353e-01  -6.0038411e-02  -1.8060022e-01  -4.0040356e-02   2.2661943e-01  -3.0370303e-02
  -1.9781119e-03  -1.5643905e-03   4.2701402e-03   6.7850456e-03  -2.0942335e-02   3.2758913e-02  -4.6707700e-02   8.1294494e-02  -1.1292454e-02  -4.7584506e-02  -1.9193008e-02   3.1385194e-02  -2.5404365e-02   9.1217046e-02   1.6108976e-01   1.1950225e-01  -8.4532227e-03  -2.0821605e-01  -3.6075439e-02  -6.8857544e-02  -1.9992250e-01   1.5300563e-01  -2.2082911e-01  -2.6276861e-01  -1.9509424e-01   3.3528263e-01
   3.4092288e-03   1.3822256e-03  -8.2663551e-03   7.6383168e-03  -2.6473483e-02  -3.1631103e-02  -4.7141488e-04   2.8415895e-02  -2.8486803e-03   4.8512070e-02  -5.8131194e-02   4.3981202e-03  -1.7066484e-02   1.0650887e-01   4.7951892e-02  -2.0920833e-03  -3.5135302e-02  -1.1628217e-01   9.3027114e-02   6.0603819e-02   7.2612974e-02  -1.4261166e-01   2.7012963e-01   1.9972532e-01   9.7406094e-02  -1.5339167e-01
  -2.0164029e-03   8.7426254e-03  -8.1738891e-03  -5.5328250e-02  -3.5390404e-03   3.5807160e-02   1.3665742e-02   4.8776211e-02  -8.9256913e-02   3.0711741e-02   9.0509571e-02  -1.0803018e-02  -2.7886357e-02  -1.1983282e-01   2.0153051e-02   7.3739929e-02  -1.3433794e-01   4.8730786e-02  -3.6978048e-05  -2.0232925e-02  -7.0053200e-03  -1.9625904e-01   2.5798131e-01   3.1909522e-01   3.9210478e-01  -5.1013152e-02
  -5.6456751e-04   5.6230864e-03   9.3201991e-04  -1.0712209e-03  -3.7259865e-02  -3.2485335e-02   5.3312133e-02  -7.0616568e-02  -4.4528286e-02  -1.9785193e-02   1.0378993e-01  -7.5414562e-02   7.6738616e-03  -9.6113785e-02  -8.5238941e-02  -2.3375232e-02   9.0511738e-02   8.9698038e-02  -1.0959436e-01  -6.8193835e-02  -1.1056542e-01   2.3155067e-01   7.0215186e-03   9.9811987e-03   8.8655392e-02   1.0658728e-01
  -2.4750911e-03  -9.2459225e-03   7.7805484e-04   5.4571735e-03   3.6856319e-02   3.2496557e-02   4.0505659e-03   1.7264260e-04  -2.1240504e-02   1.2724699e-02  -6.9130495e-03  -8.8497315e-02  -4.2891681e-02   2.5192242e-02  -7.2030195e-03   5.5905155e-02   1.7768179e-01   4.4407226e-02   1.1965603e-01  -7.3313990e-02   2.2476630e-01  -2.0426566e-02   5.0764281e-02  -3.8759001e-03   5.8725229e-03   9.3144358e-02
  -5.4155707e-03  -3.3101384e-03  -1.2946904e-02   5.8662084e-03  -2.5531433e-02   1.5511432e-03  -2.6779695e-02   7.5773639e-02  -6.7663820e-02  -5.8260893e-04   3.5128779e-02  -5.3721444e-03  -1.2041380e-02   1.0881630e-01  -5.9724749e-03   3.0437395e-03   4.7438653e-02   1.2614781e-01  -1.2257901e-01   2.1491882e-02  -1.9260910e-02  -7.5221881e-02   1.2403124e-01  -1.3106802e-01   1.6053351e-01   1.1287799e-01
  -6.3293637e-04   4.6277078e-03  -8.4346639e-03  -1.7829294e-02  -2.8245919e-03  -4.2925688e-03   1.7874932e-02   8.4122038e-03  -2.5636323e-02  -4.0800230e-02   2.6839320e-02   5.2693925e-03   7.2215243e-02  -7.9825739e-03   3.5621359e-02   9.1234176e-03  -1.0498289e-01   1.4204805e-02  -1.0307058e-01   1.2768215e-01   1.8512833e-01   3.1426605e-02  -6.3727083e-03  -2.5853094e-01  -1.4382348e-01  -3.7257785e-02
   3.0946514e-03   3.6457197e-03   6.2123023e-03  -9.4843054e-04  -4.1866836e-02  -3.5227698e-02   6.4392650e-02  -9.1458052e-03   1.0008377e-01  -8.6433123e-02   4.1497838e-02   1.0468625e-01  -9.1666911e-03   8.8454134e-02  -2.7335636e-02   1.1350671e-01  -1.8403336e-01   9.5266270e-02  -3.0501873e-02  -1.9869385e-01   3.2709620e-03  -7.3856662e-02  -3.2294503e-02  -3.5200677e-02   2.3594359e-02  -1.2347022e-01
  -1.8753929e-02   1.3917254e-02   1.2599344e-02   4.5497187e-02  -4.0730492e-03  -7.3879392e-04  -3.2745161e-02  -4.3369326e-02  -1.1953028e-02  -9.7846421e-03   1.0061691e-02  -7.0531213e-02  -5.8559034e-02  -2.2433868e-02  -7.2002484e-02   1.2206561e-02  -1.6974574e-02   7.4330560e-02   7.3900124e-02  -7.8503689e-02  -8.6558302e-03  -4.2334821e-02   2.1227430e-01   1.6712992e-01  -4.5579827e-01   3.6685038e-02
   1.5681488e-02  -9.7366525e-03   1.2367917e-03  -2.3965661e-02   9.3066199e-04   1.5902917e-02  -3.7686341e-02   1.7409681e-03  -1.4301277e-02   5.4264640e-02  -3.9105969e-02   5.2644989e-02   4.1414627e-02   3.3568151e-02   1.1088098e-01  -1.1629331e-02   1.1529210e-01   7.3164762e-02  -3.6581135e-02   5.6793331e-02   2.9958475e-01  -8.9355729e-02  -2.1034901e-01  -1.2886802e-02   1.8226907e-01  -5.0814036e-02
  -2.1966468e-04   1.7304574e-03   4.6481860e-03   4.0178925e-03  -6.3273876e-03   2.8842524e-02  -3.6509011e-02   9.7861834e-02  -1.1665454e-02  -2.5858685e-02  -1.8059693e-02   4.5975891e-02  -4.8825691e-02   7.1250918e-02   1.2132880e-01   1.2024302e-01   2.1268245e-02  -1.6595098e-01  -7.1496943e-02  -8.5078319e-02  -2.1732148e-01   1.3585326e-01  -1.8221951e-01  -2.2342697e-01  -1.2450569e-01   2.7157846e-01
   2.9804640e-03  -1.3248594e-05  -4.6959693e-03   5.5361911e-03  -2.6585792e-02  -2.7663272e-02   3.4593724e-03   5.0655253e-02   4.5905779e-04   2.5461364e-02  -4.3602665e-02  -1.1096297e-02  -1.4095809e-02   1.1131425e-01   6.1651070e-02   5.4914117e-03  -4.2379424e-02  -1.1136898e-01   6.3905438e-02   4.0031350e-02   1.1801132e-01  -1.2491234e-01   2.9644120e-01   1.5570554e-01   1.1991026e-01  -1.5862781e-01
  -1.3536193e-03   7.2483012e-03  -1.1857066e-02  -5.3579026e-02  -1.8966054e-03   2.6995015e-02   1.4418851e-02   3.1318333e-02  -7.8868332e-02   2.5504175e-02   9.8688900e-02  -1.1034626e-02  -8.5174759e-03  -1.0690799e-01   4.4642745e-02   7.4751180e-02  -1.4139302e-01   6.0567738e-03  -9.6438560e-03  -5.7318315e-04   3.0871471e-02  -1.0860500e-01   2.0591349e-01   2.7888346e-01   2.2674424e-01  -4.8636280e-02
  -7.5382545e-04   5.1452921e-03  -3.1438283e-03  -4.0929242e-03  -3.2078211e-02  -2.1818571e-02   5.0591944e-02  -6.0900062e-02  -4.3147539e-02  -2.0801831e-02   1.0289202e-01  -9.6975023e-02  -1.2110083e-02  -6.7338797e-02  -6.3302950e-02  -2.2854455e-02   3.6616284e-02   1.0645418e-01  -9.0962886e-02  -6.2043364e-02  -1.0124648e-01   2.5182668e-01   7.7182730e-02   5.7080404e-03   9.9914053e-02   5.2590905e-03
  -3.2944187e-03  -1.0806756e-02   1.7295291e-03   5.8857129e-03   3.2900850e-02   3.6305419e-02   5.7488991e-03   5.6236387e-03  -2.1962336e-02   1.2712458e-02  -4.7634841e-03  -7.8364486e-02  -3.4334761e-02   3.8697281e-02  -4.3179469e-03   5.5439492e-02   1.9161870e-01   3.2860853e-02   1.0865013e-01  -8.5650024e-02   2.4311026e-01  -2.5058891e-02   2.6491124e-02   8.3584215e-03   6.0448932e-02   8.1764360e-02
  -6.1922395e-03  -3.7470252e-03  -1.0414786e-02   7.2771750e-03  -2.9733816e-02   5.7135372e-04  -1.7757011e-02   7.4176625e-02  -6.3113787e-02  -1.2701037e-02   3.5878440e-02   1.2480939e-02  -3.5037018e-03   1.1633899e-01   1.7886512e-03   1.2547043e-02   4.5162888e-02   1.0984394e-01  -1.0423507e-01  -4.1401874e-02   2.0961636e-04  -6.9438541e-02   1.1731017e-01  -1.2351497e-01   1.5653329e-01   1.1485324e-01
  -1.5451259e-03   4.5561243e-03  -7.5112034e-03  -1.5618764e-02  -6.6574976e-03  -3.8043928e-03   1.7125401e-02   1.5146423e-02  -2.6281871e-02  -4.8424471e-02   3.0543535e-02  -3.6833339e-03   7.5944248e-02   9.4274754e-03   2.8580318e-02   2.6648335e-03  -1.0021152e-01   2.2022043e-02  -9.2875085e-02   1.5146264e-01   1.8505756e-01   3.6458823e-02   2.0898815e-02  -2.3183380e-01  -1.4063769e-01  -4.0168032e-02
   3.3164056e-03   4.1221724e-03   6.2245814e-03  -2.6680539e-03  -3.6879576e-02  -3.2477479e-02   6.4968546e-02  -1.1876264e-02   1.0350945e-01  -8.3963966e-02   3.7835458e-02   1.0561366e-01  -9.7223285e-03   7.9082147e-02  -1.8912103e-02   1.0990521e-01  -1.8494042e-01   8.1881076e-02  -2.3732858e-02  -1.9029826e-01   8.8719686e-03  -5.5766848e-02  -4.8806657e-02  -4.5528743e-02   9.8879849e-03  -1.3500167e-01
  -1.8292129e-02   1.3675165e-02   1.2591421e-02   4.0906700e-02  -6.0773849e-03   4.3648513e-03  -3.8950646e-02  -4.9409261e-02  -1.2422156e-02   1.7622341e-03   1.1475579e-02  -5.5596145e-02  -6.2438149e-02  -5.5660648e-03  -5.4585354e-02   1.1586076e-02  -8.0346766e-03   6.3678234e-02   8.4561506e-02  -5.5700728e-02   9.0788567e-03  -5.0652030e-02   2.1315549e-01   1.5468267e-01  -3.7853800e-01   3.8120118e-02
   1.5685234e-02  -1.0664236e-02   1.4516774e-03  -2.1735341e-02   7.1441737e-03   1.4494194e-02  -3.2505946e-02   3.0969299e-03  -1.4770069e-02   5.0202871e-02  -3.9881923e-02   3.2264696e-02   3.3434584e-02   1.4714992e-02   9.6025359e-02  -2.6815516e-03   1.2582860e-01   7.0823938e-02  -5.1875246e-02   4.3252631e-02   3.0262050e-01  -9.0543558e-02  -2.1966875e-01  -3.9215508e-03   1.4566248e-01  -6.4920070e-02
   9.1253275e-04   3.4435868e-03   4.4370620e-03   1.4105944e-03   9.0221353e-03   2.4871747e-02  -2.5074614e-02   1.0636237e-01  -8.0668550e-03  -5.7335794e-03  -1.6809707e-02   5.6563831e-02  -6.7245165e-02   4.9532620e-02   7.7706426e-02   1.1331106e-01   4.8392898e-02  -1.1866248e-01  -1.0089430e-01  -9.4725143e-02  -2.2622342e-01   1.0871742e-01  -1.3839591e-01  -1.7535580e-01  -5.1979893e-02   2.0247875e-01
   2.1199588e-03  -1.3600885e-03   5.8751975e-04   4.4195952e-03  -2.5196759e-02  -2.0331631e-02   6.5539886e-03   6.3062960e-02   4.0368593e-03   6.6224792e-03  -3.1178977e-02  -2.0086238e-02  -6.2630021e-03   1.0474058e-01   6.8102117e-02   1.2697851e-02  -4.4042391e-02  -1.0393971e-01   3.4512089e-02   2.3865520e-02   1.4771369e-01  -1.0964015e-01   2.8707339e-01   1.0455673e-01   1.2022766e-01  -1.4331832e-01
   1.9881069e-04   5.9138564e-03  -1.3767595e-02  -4.8817018e-02   1.6212647e-04   1.6906220e-02   1.4767887e-02   1.4235755e-02  -6.5578063e-02   1.9807712e-02   9.9549443e-02  -1.0423944e-02   9.2968377e-03  -8.7278038e-02   6.4173104e-02   7.0848099e-02  -1.3847000e-01  -3.1734295e-02  -1.7817989e-02   1.7451105e-02   6.5947255e-02  -2.2763747e-02   1.4750122e-01   2.2886515e-01   6.7032297e-02  -4.8132279e-02
  -9.6053252e-04   4.4786662e-03  -6.4427963e-03  -7.3359698e-03  -2.4818701e-02  -1.3797787e-02   4.2783930e-02  -4.8257312e-02  -3.9355754e-02  -2.1815815e-02   9.3961712e-02  -1.0645144e-01  -2.8398450e-02  -3.5830139e-02  -4.4314716e-02  -2.0445600e-02  -8.8651568e-03   1.1320922e-01  -6.5084886e-02  -5.3172486e-02  -8.9591146e-02   2.5122917e-01   1.1599142e-01  -2.9168903e-03   9.6013049e-02  -8.0664305e-02
  -4.2702243e-03  -1.2075229e-02   2.1780239e-03   6.4530978e-03   2.7658699e-02   3.7952319e-02   7.5851059e-03   1.1862334e-02  -2.2084781e-02   1.2459114e-02  -2.2370626e-03  -6.3006649e-02  -2.6441346e-02   5.1672671e-02  -5.0966449e-04   5.3447992e-02   1.9643321e-01   1.9217460e-02   9.2302660e-02  -8.7309883e-02   2.4793893e-01  -2.5980837e-02   3.9597174e-03   1.4736205e-02   1.2022592e-01   6.5449812e-02
  -6.6445995e-03  -4.5379280e-03  -7.6505116e-03   8.1738776e-03  -3.3190352e-02  -9.9842314e-04  -9.3993381e-03   7.1284600e-02  -5.7769508e-02  -2.2369674e-02   3.6203089e-02   2.8153521e-02   3.3378878e-03   1.2137198e-01   1.0720209e-02   2.1445895e-02   4.4245463e-02   9.4444128e-02  -8.5586857e-02  -9.6155499e-02   1.6302879e-02  -6.0096804e-02   1.1395527e-01  -1.1564453e-01   1.4309867e-01   1.1330722e-01
  -2.4357433e-03   3.8741210e-03  -6.6907705e-03  -1.3024677e-02  -9.8294383e-03  -3.5715389e-03   1.6843321e-02   2.2594481e-02  -2.6695294e-02  -5.3988071e-02   3.2142793e-02  -1.1601743e-02   7.1509743e-02   2.4782857e-02   2.1414274e-02  -3.1479930e-03  -8.7850577e-02   3.3734334e-02  -8.1186025e-02   1.7173805e-01   1.7524561e-01   4.3951717e-02   4.7084681e-02  -1.9789644e-01  -1.3697756e-01  -4.1174053e-02
   2.7193525e-03   4.4512103e-03   5.9853399e-03  -4.4545557e-03  -2.8830874e-02  -2.9351376e-02   6.8497158e-02  -1.6729211e-02   1.0202195e-01  -7.8877874e-02   3.1575484e-02   1.1031547e-01  -7.4205813e-03   6.0799885e-02  -9.7919224e-03   9.9085909e-02  -1.7168885e-01   5.4372292e-02  -7.3128489e-03  -1.7741930e-01   1.0509768e-02  -3.1691904e-02  -7.0385214e-02  -3.8495982e-02   5.6083109e-03  -1.3084515e-01
  -1.7321085e-02   1.2948462e-02   1.1780488e-02   3.7328999e-02  -7.8739585e-03   8.6808401e-03  -4.2197847e-02  -4.8710467e-02  -1.1211347e-02   9.1044961e-03   1.3105041e-02  -4.3535148e-02  -6.5284971e-02   6.7072038e-03  -4.1664831e-02   1.0572642e-02  -5.4454857e-03   4.8736006e-02   9.1989800e-02  -2.8458849e-02   7.4361077e-04  -4.6823012e-02   2.1883929e-01   1.3565558e-01  -3.0049352e-01   4.2028311e-02
   1.5207196e-02  -1.1116570e-02   6.4202055e-04  -1.9036914e-02   9.0599920e-03   1.1744020e-02  -2.3462629e-02   9.3326540e-03  -1.7739452e-02   4.1427017e-02  -3.8445020e-02   1.3858268e-02   2.9798555e-02  -4.1610336e-03   7.3072716e-02   3.5209212e-03   1.2305918e-01   5.9095723e-02  -6.2633206e-02   3.4152237e-02   2.7008489e-01  -6.8287926e-02  -2.1074958e-01  -1.1086048e-02   1.1758807e-01  -7.1441734e-02
   1.5138887e-03   3.8893517e-03   3.6612562e-03  -1.0680628e-03   2.3802047e-02   2.1163131e-02  -1.3552494e-02   1.0778153e-01  -1.8935751e-03   1.1843357e-02  -1.5211738e-02   6.4418514e-02  -7.9972641e-02   2.8138169e-02   3.3560703e-02   9.9950392e-02   7.0237936e-02  -7.1272578e-02  -1.2304009e-01  -9.8070737e-02  -2.2714256e-01   7.4229827e-02  -9.4593719e-02  -1.2407045e-01   1.5861538e-02   1.3455744e-01
   1.0803001e-03  -2.5022135e-03   6.6182515e-03   4.2042316e-03  -2.3086322e-02  -1.1208427e-02   8.0208123e-03   6.6241279e-02   7.4934743e-03  -6.5171364e-03  -2.1775552e-02  -2.2573891e-02   4.6780512e-03   9.0085761e-02   6.8022434e-02   1.9191907e-02  -3.9620761e-02  -9.4915801e-02   8.3750819e-03   1.2334258e-02   1.6197143e-01  -9.8712492e-02   2.4660483e-01   5.2629045e-02   1.0170995e-01  -1.1210370e-01
   2.2354338e-03   4.8142048e-03  -1.4116674e-02  -4.1929462e-02   2.1299123e-03   6.8757960e-03   1.4651881e-02  -1.4263933e-03  -5.1410371e-02   1.2756381e-02   9.4887547e-02  -9.6447416e-03   2.4660434e-02  -6.3215375e-02   7.8502782e-02   6.3581962e-02  -1.2704213e-01  -6.2055612e-02  -2.3962906e-02   3.2880461e-02   9.4941374e-02   5.3770916e-02   8.8316380e-02   1.7399903e-01  -7.3519737e-02  -4.9755083e-02
  -1.2011022e-03   3.7603589e-03  -8.9983555e-03  -1.0238063e-02  -1.6722823e-02  -8.7075493e-03   3.1671626e-02  -3.5274929e-02  -3.4274697e-02  -2.3275678e-02   7.9011844e-02  -1.0485741e-01  -3.9742463e-02  -4.2565545e-03  -3.0206321e-02  -1.7316563e-02  -4.3279525e-02   1.0980979e-01  -3.6150102e-02  -4.2989979e-02  -7.6502320e-02   2.3307473e-01   1.2467957e-01  -1.6081037e-02   8.0523822e-02  -1.4650101e-01
  -5.2137099e-03  -1.3105919e-02   2.1753440e-03   7.1169442e-03   2.1643717e-02   3.7605371e-02   9.5766094e-03   1.8587503e-02  -2.1186860e-02   1.1933668e-02   4.3725714e-04  -4.3662049e-02  -1.9363543e-02   6.2540708e-02   4.5412583e-03   5.0231743e-02   1.9307722e-01   3.9575218e-03   7.0388104e-02  -7.9560307e-02   2.4009232e-01  -2.3755430e-02  -1.7624871e-02   1.4959918e-02   1.8140506e-01   4.5234252e-02
  -6.7758796e-03  -5.5732370e-03  -4.7851278e-03   8.5818618e-03  -3.6050180e-02  -3.1229580e-03  -1.8400047e-03   6.7615079e-02  -5.1380798e-02  -2.9775692e-02   3.6406968e-02   4.1526201e-02   8.4582164e-03   1.2445721e-01   2.0027135e-02   2.9824249e-02   4.2848838e-02   8.0757420e-02  -6.8650022e-02  -1.4224099e-01   2.7828209e-02  -4.7998694e-02   1.1323644e-01  -1.0799251e-01   1.2233914e-01   1.0783375e-01
  -3.2643882e-03   2.7188796e-03  -5.9144413e-03  -1.0053829e-02  -1.2181885e-02  -3.3324660e-03   1.6825374e-02   3.0200734e-02  -2.6943660e-02  -5.7293183e-02   3.1325279e-02  -1.8050439e-02   6.0820897e-02   3.6332433e-02   1.4486114e-02  -8.4801326e-03  -6.9058579e-02   4.6862435e-02  -6.9478806e-02   1.8673793e-01   1.5774852e-01   5.3081327e-02   6.9206349e-02  -1.5823661e-01  -1.3434164e-01  -4.0209995e-02
   1.6904027e-03   4.6330339e-03   5.6073335e-03  -6.1632934e-03  -1.9224256e-02  -2.6547833e-02   7.3648849e-02  -2.3090097e-02   9.7658817e-02  -7.2776248e-02   2.3967405e-02   1.1720081e-01  -3.4175155e-03   3.7863239e-02  -1.3022454e-03   8.4032287e-02  -1.5056945e-01   2.0004454e-02   1.3242564e-02  -1.6000883e-01   9.3551498e-03  -8.0024254e-03  -9.2431815e-02  -1.8242843e-02   7.0025104e-03  -1.1529580e-01
  -1.6068720e-02   1.1769763e-02   1.0504237e-02   3.5116395e-02  -8.5304764e-03   1.2363693e-02  -4.3125457e-02  -4.2992709e-02  -8.4086297e-03   1.2802004e-02   1.4831822e-02  -3.5736634e-02  -6.7334201e-02   1.4681718e-02  -3.2799022e-02   9.0750710e-03  -6.0717903e-03   3.3347885e-02   9.6449027e-02  -1.8942774e-03  -2.4405474e-02  -3.5794112e-02   2.2564189e-01   1.1566437e-01  -2.2882764e-01   4.9096810e-02
   1.4306203e-02  -1.1076758e-02  -8.8187023e-04  -1.6241932e-02   7.1619476e-03   7.9765973e-03  -1.2471222e-02   1.8332107e-02  -2.2535625e-02   2.9680033e-02  -3.5236351e-02  -1.0133513e-03   2.9782044e-02  -2.0848523e-02   4.5918590e-02   6.8678467e-03   1.0979441e-01   4.1734776e-02  -6.8067331e-02   2.8097183e-02   2.1421611e-01  -3.0369912e-02  -1.8756347e-01  -2.9379086e-02   9.7198323e-02  -6.9807725e-02
   1.7020040e-03   3.3761490e-03   2.3787285e-03  -3.4101577e-03   3.6910536e-02   1.7911213e-02  -2.8672503e-03   1.0343697e-01   5.5575206e-03   2.6188975e-02  -1.3062545e-02   7.0505220e-02  -8.6850701e-02   8.8450406e-03  -8.2818795e-03   8.1595349e-02   8.5001353e-02  -2.7785971e-02  -1.3722730e-01  -9.5745138e-02  -2.2071532e-01   3.5252926e-02  -5.4859304e-02  -7.4379624e-02   7.3980095e-02   7.2702082e-02
   7.6589138e-05  -3.3215210e-03   1.2550041e-02   4.6711685e-03  -2.0947809e-02  -1.6586484e-03   7.5299316e-03   6.1652454e-02   1.0405093e-02  -1.3333711e-02  -1.5556118e-02  -1.9472976e-02   1.6850218e-02   7.1050121e-02   6.2783051e-02   2.4679004e-02  -2.9697263e-02  -8.4669369e-02  -1.2074472e-02   4.9515472e-03   1.6260419e-01  -9.2772870e-02   1.8279065e-01   5.2052226e-03   6.9703926e-02  -7.0898555e-02
   4.4292655e-03   3.9881397e-03  -1.3157751e-02  -3.3728506e-02   3.6177665e-03  -2.0311667e-03   1.4120603e-02  -1.4922019e-02  -3.8044561e-02   3.7937051e-03   8.6496025e-02  -9.1772891e-03   3.6976561e-02  -3.7062579e-02   8.7695932e-02   5.4429522e-02  -1.0891895e-01  -8.3601070e-02  -2.7741141e-02   4.5063154e-02   1.1530488e-01   1.1569528e-01   3.2693641e-02   1.1819439e-01  -1.8582226e-01  -5.3212120e-02
  -1.4876940e-03   3.1006799e-03  -1.0886025e-02  -1.2421404e-02  -8.8238304e-03  -6.4942585e-03   1.9102552e-02  -2.3797338e-02  -2.8921729e-02  -2.5671070e-02   6.0345899e-02  -9.4246862e-02  -4.5634814e-02   2.4996333e-02  -2.1724744e-02  -1.4632951e-02  -6.5743580e-02   9.6978943e-02  -8.1068270e-03  -3.2878363e-02  -6.2600955e-02   2.0200780e-01   1.0856610e-01  -3.2975982e-02   5.8141428e-02  -1.9055665e-01
  -5.9924421e-03  -1.3943115e-02   1.8235266e-03   7.8776522e-03   1.5460069e-02   3.5484057e-02   1.1699471e-02   2.5366355e-02  -1.8956995e-02   1.1163965e-02   3.0822693e-03  -2.1828287e-02  -1.3175906e-02   7.0055757e-02   1.0967452e-02   4.5999820e-02   1.8293875e-01  -1.2090009e-02   4.3061879e-02  -6.4253987e-02   2.2140199e-01  -1.9327827e-02  -3.9218329e-02   9.5393839e-03   2.3990638e-01   2.2611123e-02
  -6.6157748e-03  -6.7441490e-03  -1.9439247e-03   8.5163410e-03  -3.8364853e-02  -5.6553546e-03   4.8577896e-03   6.3590502e-02  -4.3914244e-02  -3.4985360e-02   3.6662400e-02   5.2636248e-02   1.1920352e-02   1.2583939e-01   2.9135541e-02   3.7640441e-02   3.9843138e-02   6.9154741e-02  -5.4848694e-02  -1.7952106e-01   3.4132793e-02  -3.3785693e-02   1.1408551e-01  -1.0063912e-01   9.6750761e-02   9.8468373e-02
  -4.0006692e-03   1.2387272e-03  -5.1343179e-03  -6.7701006e-03  -1.3680274e-02  -2.9361531e-03   1.6876510e-02   3.7472894e-02  -2.7084484e-02  -5.8236064e-02   2.7952630e-02  -2.2587782e-02   4.5781065e-02   4.2982269e-02   8.0095653e-03  -1.3351303e-02  -4.5105116e-02   5.9208701e-02  -5.8939068e-02   1.9540490e-01   1.3456449e-01   6.2715681e-02   8.5468766e-02  -1.1444436e-01  -1.3349017e-01  -3.7472464e-02
   5.8869999e-04   4.6966073e-03   5.2130858e-03  -7.7084441e-03  -9.6338500e-03  -2.4674962e-02   7.8931797e-02  -3.0246700e-02   9.2443428e-02  -6.6840376e-02   1.6207636e-02   1.2448264e-01   1.1917942e-03   1.4639930e-02   5.3475340e-03   6.8118692e-02  -1.2765623e-01  -1.4111967e-02   3.3078776e-02  -1.3835493e-01   7.2328328e-03   1.0121685e-02  -1.1125279e-01   9.1710314e-03   9.8092796e-03  -9.3715650e-02
  -1.4775729e-02   1.0210569e-02   9.1254242e-03   3.4391739e-02  -7.3327536e-03   1.5630976e-02  -4.2584793e-02  -3.4258186e-02  -4.1884421e-03   1.3773085e-02   1.6706717e-02  -3.3015615e-02  -6.8600054e-02   1.9465246e-02  -2.7103958e-02   6.8441957e-03  -7.1413540e-03   2.0628243e-02   9.8433302e-02   1.9762153e-02  -5.5911007e-02  -2.2724474e-02   2.2986411e-01   9.9381085e-02  -1.6803910e-01   5.9856675e-02
   1.3093582e-02  -1.0586950e-02  -2.7504727e-03  -1.3746232e-02   2.3711145e-03   3.6308059e-03  -1.5114001e-03   2.7739886e-02  -2.8345768e-02   1.6775430e-02  -3.0822700e-02  -1.1584506e-02   3.2071534e-02  -3.3578298e-02   1.8372775e-02   7.7170145e-03   8.9300571e-02   2.2601239e-02  -6.8142965e-02   2.3499996e-02   1.4816160e-01   1.4151095e-02  -1.5495185e-01  -5.2382944e-02   8.2746349e-02  -6.0077447e-02
   1.6021189e-03   2.1940522e-03   6.8420869e-04  -5.5796955e-03   4.7499161e-02   1.5193535e-02   6.2929513e-03   9.4828803e-02   1.3156812e-02   3.6906066e-02  -1.0231737e-02   7.5469348e-02  -8.8211589e-02  -6.9982988e-03  -4.5571243e-02   5.9809818e-02   9.1775953e-02   8.8135496e-03  -1.4326573e-01  -8.8614774e-02  -2.0778363e-01  -5.3521960e-03  -2.2030795e-02  -3.0129884e-02   1.1897795e-01   2.0204596e-02
  -7.2181181e-04  -3.7499858e-03   1.7707879e-02   5.5152801e-03  -1.9320310e-02   7.1950010e-03   5.1706131e-03   5.1330099e-02   1.2392860e-02  -1.3959660e-02  -1.2100578e-02  -1.2292679e-02   2.8482160e-02   5.1136914e-02   5.4174671e-02   2.8951477e-02  -1.5684179e-02  -7.3218898e-02  -2.5456049e-02   8.3387641e-04   1.5237612e-01  -9.1355460e-02   1.0521633e-01  -3.3656525e-02   3.0391477e-02  -2.5860955e-02
   6.5335633e-03   3.4387098e-03  -1.1173350e-02  -2.4923369e-02   4.3666435e-03  -9.0492233e-03   1.3310289e-02  -2.5796850e-02  -2.6755584e-02  -7.2864918e-03   7.6055538e-02  -9.3104504e-03   4.5943313e-02  -1.1087177e-02   9.2053460e-02   4.4702108e-02  -8.6114925e-02  -9.6172196e-02  -2.9032376e-02   5.3644280e-02   1.2539880e-01   1.5987030e-01  -1.6245996e-02   6.4432660e-02  -2.6503333e-01  -5.7759060e-02
  -1.8229247e-03   2.5731040e-03  -1.2189736e-02  -1.3675971e-02  -1.8856236e-03  -6.8490476e-03   6.8176583e-03  -1.4964674e-02  -2.4101233e-02  -2.9398194e-02   4.0325947e-02  -7.7311673e-02  -4.6313212e-02   4.9815874e-02  -1.8596517e-02  -1.3355561e-02  -7.6853982e-02   7.6272610e-02   1.5703601e-02  -2.3980928e-02  -4.8374067e-02   1.6330069e-01   7.5479393e-02  -5.2078239e-02   3.3773728e-02  -2.1339138e-01
  -6.5327854e-03  -1.4614840e-02   1.2581413e-03   8.7525881e-03   9.7237800e-03   3.1849412e-02   1.3893394e-02   3.1689730e-02  -1.5221872e-02   1.0225217e-02   5.6088761e-03   8.6596408e-04  -7.8299811e-03   7.3419871e-02   1.8722962e-02   4.0834622e-02   1.6764253e-01  -2.7921499e-02   1.0890197e-02  -4.3605430e-02   1.9447712e-01  -1.3815400e-02  -6.1732359e-02  -4.6382581e-04   2.9190699e-01  -5.6939586e-04
  -6.2113724e-03  -7.9497069e-03   7.5860587e-04   7.9882615e-03  -4.0092254e-02  -8.3627709e-03   1.0702237e-02   5.9522005e-02  -3.5513771e-02  -3.8000494e-02   3.7021075e-02   6.1644607e-02   1.3837762e-02   1.2550740e-01   3.7673253e-02   4.4742899e-02   3.4738139e-02   5.9641002e-02  -4.5086456e-02  -2.0819815e-01   3.5044424e-02  -1.8064397e-02   1.1525246e-01  -9.3166547e-02   6.9039739e-02   8.5670700e-02
  -4.6201661e-03  -4.1484228e-04  -4.3170798e-03  -3.2903238e-03  -1.4394524e-02  -2.3348525e-03   1.6806001e-02   4.3998840e-02  -2.7155873e-02  -5.6829159e-02   2.2067829e-02  -2.4843666e-02   2.8150710e-02   4.4282778e-02   2.0732193e-03  -1.7643801e-02  -1.7360483e-02   6.8975785e-02  -5.0504182e-02   1.9738657e-01   1.0759350e-01   7.1506846e-02   9.5241421e-02  -6.8112093e-02  -1.3454972e-01  -3.3428968e-02
  -3.1247291e-04   4.6931395e-03   4.9002567e-03  -9.0729469e-03  -1.3906642e-03  -2.4130118e-02   8.3002049e-02  -3.7520227e-02   8.8012824e-02  -6.1732613e-02   9.2555735e-03   1.3052296e-01   5.4448646e-03  -5.2196580e-03   9.3058854e-03   5.4342271e-02  -1.0777242e-01  -4.2263004e-02   4.8656012e-02  -1.1307974e-01   5.9999103e-03   1.9451060e-02  -1.2450363e-01   3.7456195e-02   1.0340191e-02  -7.1406059e-02
  -1.3660954e-02   8.3698022e-03   7.9666670e-03   3.5082813e-02  -3.9022517e-03   1.8684897e-02  -4.1400115e-02  -2.4426187e-02   1.1841628e-03   1.3041445e-02   1.8903505e-02  -3.5547393e-02  -6.8913009e-02   2.2525865e-02  -2.3553010e-02   3.5603206e-03  -6.6258642e-03   1.2510128e-02   9.8487675e-02   3.3638447e-02  -8.4201193e-02  -1.1944072e-02   2.2850459e-01   8.9784303e-02  -1.1996040e-01   7.4394005e-02
   1.1719568e-02  -9.7289778e-03  -4.6101137e-03  -1.1923051e-02  -4.2014498e-03  -7.9682967e-04   7.6731913e-03   3.5422173e-02  -3.4344744e-02   4.3743385e-03  -2.5835018e-02  -1.7744294e-02   3.5125437e-02  -4.1209823e-02  -6.3686185e-03   6.8230477e-03   6.4732244e-02   5.0474641e-03  -6.3425839e-02   1.9029084e-02   8.3776696e-02   5.6617141e-02  -1.1784638e-01  -7.3765841e-02   7.2148692e-02  -4.3024994e-02
   1.3331507e-03   6.0540198e-04  -1.2913784e-03  -7.5242554e-03   5.5000388e-02   1.2980104e-02   1.3472335e-02   8.3483962e-02   1.9988592e-02   4.3894892e-02  -6.6921671e-03   7.9641050e-02  -8.4796828e-02  -1.8554591e-02  -7.6655817e-02   3.6240764e-02   9.0520146e-02   3.6596076e-02  -1.4144202e-01  -7.7677899e-02  -1.8942897e-01  -4.4906123e-02   2.2064240e-03   5.9576546e-03   1.4904041e-01  -2.1089033e-02
  -1.1968212e-03  -3.7739510e-03   2.1617377e-02   6.3988246e-03  -1.8547802e-02   1.4491687e-02   1.3762395e-03   3.7577766e-02   1.3180483e-02  -9.1339532e-03  -1.0602478e-02  -2.8261352e-03   3.8089414e-02   3.3179336e-02   4.4171330e-02   3.1929286e-02   5.0486950e-04  -6.0429216e-02  -3.1339754e-02  -1.0155650e-03   1.3443727e-01  -9.3112608e-02   2.3984507e-02  -6.1172134e-02  -1.0249028e-02   1.7471257e-02
   8.3778462e-03   3.1363713e-03  -8.4608081e-03  -1.6105176e-02   4.2480645e-03  -1.3722354e-02   1.2408730e-02  -3.3862091e-02  -1.8385884e-02  -2.0320233e-02   6.5044513e-02  -1.0154072e-02   5.1534185e-02   1.2657498e-02   9.2049248e-02   3.5473090e-02  -6.0731483e-02  -1.0044315e-01  -2.7896908e-02   5.8540536e-02   1.2461411e-01   1.8517281e-01  -5.6491423e-02   1.4932568e-02  -3.1012765e-01  -6.2351334e-02
  -2.1969241e-03   2.2105993e-03  -1.2976405e-02  -1.3932093e-02   3.6140524e-03  -9.2978944e-03  -3.6981831e-03  -9.2934807e-03  -2.0334195e-02  -3.4638553e-02   2.1163110e-02  -5.6993391e-02  -4.2536789e-02   6.8402360e-02  -1.9766892e-02  -1.4064393e-02  -7.8319297e-02   4.9972868e-02   3.2849173e-02  -1.7047139e-02  -3.4274980e-02   1.2220181e-01   3.4203599e-02  -7.1484503e-02   1.1775636e-02  -2.1711221e-01
  -6.8157885e-03  -1.5130163e-02   6.2852478e-04   9.7548240e-03   4.9859883e-03   2.6987376e-02   1.6080966e-02   3.7038997e-02  -9.9641618e-03   9.2160330e-03   8.0308361e-03   2.2794512e-02  -3.1336426e-03   7.2323241e-02   2.7593396e-02   3.4690884e-02   1.4886106e-01  -4.2537406e-02  -2.5163443e-02  -1.9958625e-02   1.6237992e-01  -8.2819906e-03  -8.5828331e-02  -1.3722554e-02   3.3425181e-01  -2.2276019e-02
  -5.6170919e-03  -9.1018786e-03   3.2234795e-03   7.0116671e-03  -4.1125522e-02  -1.0962061e-02   1.5761972e-02   5.5610949e-02  -2.6444028e-02  -3.8815213e-02   3.7438827e-02   6.8791948e-02   1.4349131e-02   1.2328283e-01   4.5418528e-02   5.0931542e-02   2.7547477e-02   5.1973480e-02  -3.9840557e-02  -2.2874741e-01   3.0810719e-02  -1.5112466e-03   1.1547476e-01  -8.4769791e-02   4.1902794e-02   7.0233419e-02
  -5.1033786e-03  -2.0949117e-03  -3.4435413e-03   2.2653696e-04  -1.4471953e-02  -1.5643917e-03   1.6431000e-02   4.9448914e-02  -2.7178693e-02  -5.3198238e-02   1.3893012e-02  -2.4590790e-02   9.4588262e-03   4.0360873e-02  -3.3388851e-03  -2.1117260e-02   1.2760241e-02   7.4839691e-02  -4.4866561e-02   1.9295917e-01   7.8645176e-02   7.8018523e-02   9.8900678e-02  -2.0770583e-02  -1.3716225e-01  -2.8778578e-02
  -8.5248716e-04   4.6856501e-03   4.7144502e-03  -1.0293291e-02   4.6527401e-03  -2.5007541e-02   8.4899758e-02  -4.4330998e-02   8.5396357e-02  -5.7647185e-02   3.7152570e-03   1.3407029e-01   8.5059725e-03  -1.9380727e-02   1.0228115e-02   4.4706933e-02  -9.3885910e-02  -6.0886158e-02   5.7984927e-02  -8.5103850e-02   6.9123126e-03   1.9005054e-02  -1.3131563e-01   6.1592023e-02   6.2888522e-03  -5.2692471e-02
  -1.2893899e-02   6.3614682e-03   7.2625061e-03   3.6972006e-02   1.7449523e-03   2.1650829e-02  -4.0190620e-02  -1.5069741e-02   7.3569932e-03   1.1550547e-02   2.1633664e-02  -4.2819830e-02  -6.8007985e-02   2.5264063e-02  -2.1174774e-02  -1.0554087e-03  -3.3558455e-03   9.5495951e-03   9.7031659e-02   3.8443428e-02  -1.0207611e-01  -6.2764351e-03   2.1968121e-01   8.7782738e-02  -8.4057872e-02   9.2039011e-02
   1.0355671e-02  -8.6048299e-03  -6.1821979e-03  -1.1076667e-02  -1.1475591e-02  -4.8113194e-03   1.3810221e-02   3.9818015e-02  -3.9815349e-02  -6.1710688e-03  -2.0929310e-02  -1.9827073e-02   3.7497625e-02  -4.3360192e-02  -2.6057915e-02   5.2326185e-03   3.8810747e-02  -8.4946907e-03  -5.4896086e-02   1.3880944e-02   3.0053023e-02   9.0100560e-02  -8.0664616e-02  -8.8508194e-02   6.3388053e-02  -2.0268114e-02
   9.9508222e-04  -1.1614626e-03  -3.3855612e-03  -9.1858026e-03   5.9130084e-02   1.1147014e-02   1.8429401e-02   7.0811042e-02   2.5373388e-02   4.7352479e-02  -2.5329706e-03   8.3057030e-02  -7.7645004e-02  -2.5527135e-02  -1.0047286e-01   1.2583071e-02   8.1986344e-02   5.4654764e-02  -1.3244403e-01  -6.3985150e-02  -1.6695217e-01  -8.1024723e-02   1.7201262e-02   3.2339078e-02   1.6378199e-01  -5.0598632e-02
  -1.2840138e-03  -3.4309043e-03   2.4011588e-02   7.0031370e-03  -1.8763634e-02   1.9640039e-02  -3.1766040e-03   2.2684865e-02   1.2629268e-02  -3.4802511e-05  -1.0075479e-02   7.1279754e-03   4.4591964e-02   1.9037591e-02   3.4709070e-02   3.3678518e-02   1.6804413e-02  -4.6199336e-02  -3.0118009e-02  -1.4827788e-03   1.1187034e-01  -9.6092100e-02  -5.1445395e-02  -7.5782758e-02  -4.7251486e-02   5.4810708e-02
   9.8590670e-03   3.0247319e-03  -5.3180119e-03  -7.7440199e-03   3.2551391e-03  -1.5894874e-02   1.1614376e-02  -3.9153705e-02  -1.3348539e-02  -3.4778258e-02   5.4671452e-02  -1.1659952e-02   5.3965168e-02   3.2453876e-02   8.8277294e-02   2.7524850e-02  -3.4854935e-02  -9.7692376e-02  -2.4545264e-02   5.9904763e-02   1.1341886e-01   1.9225410e-01  -8.6978580e-02  -2.8662701e-02  -3.2326633e-01  -6.5833623e-02
  -2.5864504e-03   2.0078834e-03  -1.3281972e-02  -1.3229427e-02   7.4669588e-03  -1.3286464e-02  -1.1334381e-02  -6.7890046e-03  -1.7829555e-02  -4.1274568e-02   4.7402646e-03  -3.6133650e-02  -3.5370399e-02   7.9353598e-02  -2.3674147e-02  -1.6850009e-02  -7.2560790e-02   2.0912189e-02   4.1998830e-02  -1.2343433e-02  -2.0790440e-02   8.3373005e-02  -6.8973559e-03  -8.9236735e-02  -4.5864903e-03  -2.0474687e-01
  -6.8674287e-03  -1.5479713e-02   7.7153839e-05   1.0877053e-02   1.6681216e-03   2.1189008e-02   1.8193163e-02   4.0951348e-02  -3.3271860e-03   8.2290085e-03   1.0453977e-02   4.2468868e-02   1.2357302e-03   6.6916446e-02   3.7221394e-02   2.7422671e-02   1.2816159e-01  -5.5103920e-02  -6.3801022e-02   4.4326511e-03   1.2825240e-01  -3.5434436e-03  -1.1174292e-01  -2.8904126e-02   3.6472538e-01  -4.0526398e-02
  -4.8858359e-03  -1.0128494e-02   5.3711204e-03   5.6101263e-03  -4.1337752e-02  -1.3161532e-02   2.0147596e-02   5.1960550e-02  -1.7029304e-02  -3.7462429e-02   3.7807794e-02   7.4354991e-02   1.3608332e-02   1.1893379e-01   5.2233480e-02   5.6044990e-02   1.8624525e-02   4.5792796e-02  -3.9253719e-02  -2.4184099e-01   2.2047037e-02   1.5063660e-02   1.1363395e-01  -7.4476469e-02   1.7795102e-02   5.3143585e-02
  -5.4364279e-03  -3.6665524e-03  -2.5059597e-03   3.5953660e-03  -1.4105532e-02  -7.1545442e-04   1.5587555e-02   5.3569091e-02  -2.7165707e-02  -4.7565940e-02   3.8191737e-03  -2.1804243e-02  -9.0414354e-03   3.1812271e-02  -8.3284275e-03  -2.3436693e-02   4.3871901e-02   7.5980214e-02  -4.2456235e-02   1.8290390e-01   4.9455919e-02   8.0872559e-02   9.7583364e-02   2.6174145e-02  -1.4065162e-01  -2.4364317e-02
  -9.8547195e-04   4.7371316e-03   4.6408462e-03  -1.1414907e-02   8.2196437e-03  -2.7058846e-02   8.4193392e-02  -5.0195454e-02   8.4938301e-02  -5.4439318e-02  -1.9626698e-04   1.3435292e-01   9.6827661e-03  -2.7113842e-02   8.2407726e-03   3.9938541e-02  -8.6920821e-02  -6.8768499e-02   6.0606068e-02  -5.5647771e-02   1.0228214e-02   9.9705441e-03  -1.3219254e-01   7.8714174e-02  -2.9412604e-03  -4.0417857e-02
  -1.2576914e-02   4.3023960e-03   7.1328593e-03   3.9753246e-02   9.2017954e-03   2.4538041e-02  -3.9271696e-02  -7.2668960e-03   1.3906040e-02   1.0051863e-02   2.5048061e-02  -5.3635266e-02  -6.5645002e-02   2.8674145e-02  -1.9154122e-02  -7.1263418e-03   3.0757106e-03   1.0979658e-02   9.4210230e-02   3.4445928e-02  -1.0549834e-01  -6.7624071e-03   2.0276224e-01   9.2224137e-02  -5.7940466e-02   1.1112981e-01
   9.1751140e-03  -7.3196559e-03  -7.3006501e-03  -1.1404239e-02  -1.8566371e-02  -7.9744370e-03   1.6243518e-02   4.0148680e-02  -4.4242259e-02  -1.3908450e-02  -1.6762144e-02  -1.8383061e-02   3.8080795e-02  -4.0449029e-02  -3.9513814e-02   4.1390148e-03   1.3717029e-02  -1.6711492e-02  -4.3769520e-02   7.8781711e-03  -7.7305689e-03   1.1024853e-01  -4.6902969e-02  -9.3695951e-02   5.4769105e-02   5.6481089e-03
   6.5877527e-04  -2.9154111e-03  -5.4129798e-03  -1.0510123e-02   5.9866673e-02   9.4946518e-03   2.1108391e-02   5.7980680e-02   2.8866115e-02   4.7754992e-02   2.0443470e-03   8.5496727e-02  -6.7960419e-02  -2.8138310e-02  -1.1651427e-01  -9.4546362e-03   6.7606707e-02   6.3019035e-02  -1.1726194e-01  -4.8585161e-02  -1.4180825e-01  -1.1166918e-01   2.3174583e-02   4.8588522e-02   1.6402579e-01  -6.8815621e-02
  -9.7185230e-04  -2.7997883e-03   2.4817405e-02   7.0728811e-03  -1.9898687e-02   2.2316955e-02  -7.6854626e-03   8.6861393e-03   1.0750079e-02   1.1885638e-02  -9.5483593e-03   1.5987867e-02   4.7365713e-02   9.4858665e-03   2.7488468e-02   3.4400282e-02   3.1321720e-02  -3.0622028e-02  -2.2863798e-02  -1.2007606e-03   8.7370530e-02  -9.8043567e-02  -1.1317882e-01  -7.7036287e-02  -7.7178452e-02   8.3477735e-02
   1.0929261e-02   3.0284511e-03  -2.0299221e-03  -1.9640530e-04   1.4858124e-03  -1.5685217e-02   1.1095023e-02  -4.1882405e-02  -1.1659367e-02  -4.9798050e-02   4.5831251e-02  -1.3650566e-02   5.3650504e-02   4.7013480e-02   8.1412112e-02   2.1316492e-02  -1.0469599e-02  -8.9529728e-02  -1.9313282e-02   5.8084429e-02   9.3321966e-02   1.8323532e-01  -1.0739336e-01  -6.5099614e-02  -3.0903448e-01  -6.7143802e-02
  -2.9558561e-03   1.9286117e-03  -1.3109966e-02  -1.1687710e-02   9.6956808e-03  -1.8249677e-02  -1.5433854e-02  -7.0757868e-03  -1.6496449e-02  -4.8857640e-02  -7.5260138e-03  -1.7183720e-02  -2.6002476e-02   8.1778623e-02  -2.8526609e-02  -2.1296890e-02  -6.2323596e-02  -7.7674973e-03   4.2975244e-02  -9.6329527e-03  -8.4849956e-03   5.0448741e-02  -4.0962718e-02  -1.0359110e-01  -1.3400373e-02  -1.7973921e-01
  -6.7446878e-03  -1.5638998e-02  -2.7949162e-04   1.2081041e-02   1.6263842e-05   1.4731333e-02   2.0193050e-02   4.3073523e-02   4.3942808e-03   7.3233099e-03   1.3041065e-02   5.8667050e-02   5.6827235e-03   5.7729187e-02   4.7152342e-02   1.8832908e-02   1.0690452e-01  -6.5077906e-02  -1.0349866e-01   2.7593125e-02   9.4956300e-02  -3.9426373e-05  -1.3917395e-01  -4.4864909e-02   3.8218698e-01  -5.3644095e-02
  -4.0626046e-03  -1.0974190e-02   7.1436103e-03   3.8199375e-03  -4.0629911e-02  -1.4703719e-02   2.3990160e-02   4.8590182e-02  -7.5973976e-03  -3.4045753e-02   3.7989469e-02   7.8612823e-02   1.1783780e-02   1.1229093e-01   5.8003334e-02   6.0045081e-02   8.5018606e-03   4.0735832e-02  -4.3213844e-02  -2.4826654e-01   9.6897583e-03   3.0700176e-02   1.0888306e-01  -6.1406252e-02  -1.2768360e-03   3.5431251e-02
  -5.6119730e-03  -5.0137905e-03  -1.5053900e-03   6.6231763e-03  -1.3498190e-02   1.0032110e-04   1.4147079e-02   5.6169618e-02  -2.7131087e-02  -4.0234166e-02  -7.6123079e-03  -1.6701085e-02  -2.6385686e-02   1.9570322e-02  -1.3056662e-02  -2.4224222e-02   7.4686496e-02   7.2071870e-02  -4.3429044e-02   1.6836271e-01   2.1676485e-02   7.8892306e-02   9.2905214e-02   7.1516798e-02  -1.4417669e-01  -2.1037351e-02
  -7.6526256e-04   4.8996194e-03   4.6172726e-03  -1.2430406e-02   9.5551573e-03  -2.9720457e-02   8.1024162e-02  -5.4680196e-02   8.6342252e-02  -5.1777261e-02  -2.5962101e-03   1.3104383e-01   8.5089010e-03  -2.9250861e-02   3.7291985e-03   3.9576875e-02  -8.5932837e-02  -6.6746707e-02   5.7433786e-02  -2.6275692e-02   1.5176825e-02  -4.6780428e-03  -1.2873845e-01   8.8240017e-02  -1.6419650e-02  -3.5884683e-02
  -1.2738369e-02   2.3009231e-03   7.5789711e-03   4.3088860e-02   1.7731236e-02   2.7224993e-02  -3.8638943e-02  -1.5613338e-03   2.0364611e-02   9.0615861e-03   2.9154502e-02  -6.6191629e-02  -6.1733090e-02   3.3141703e-02  -1.6863109e-02  -1.4521499e-02   1.2536331e-02   1.4980112e-02   8.9802291e-02   2.3245059e-02  -9.3703391e-02  -1.2755654e-02   1.7824973e-01   1.0024257e-01  -3.7984336e-02   1.2894706e-01
   8.3328953e-03  -5.9692039e-03  -7.9239817e-03  -1.2969956e-02  -2.4878039e-02  -9.9514070e-03   1.4976796e-02   3.6476851e-02  -4.7366379e-02  -1.8314758e-02  -1.3966711e-02  -1.3982838e-02   3.6255436e-02  -3.3641072e-02  -4.6548980e-02   4.7118158e-03  -8.8622419e-03  -1.9397248e-02  -3.1338012e-02   1.4083533e-03  -2.8135030e-02   1.1560048e-01  -1.8928842e-02  -8.8830662e-02   4.5037910e-02   3.1291771e-02
   3.5961240e-04  -4.5030860e-03  -7.1779878e-03  -1.1455446e-02   5.7412927e-02   7.7712029e-03   2.1604123e-02   4.5842895e-02   3.0234667e-02   4.5817099e-02   6.7433836e-03   8.6532256e-02  -5.6981953e-02  -2.7064136e-02  -1.2476867e-01  -2.8199920e-02   4.9335349e-02   6.2519077e-02  -9.7089682e-02  -3.2486270e-02  -1.1551870e-01  -1.3515362e-01   2.1037773e-02   5.5254072e-02   1.5155402e-01  -7.7097069e-02
  -2.9810118e-04  -1.9865219e-03   2.4125858e-02   6.4489561e-03  -2.1710995e-02   2.2459778e-02  -1.1344518e-02  -2.8163484e-03   7.6936870e-03   2.5051091e-02  -8.2298810e-03   2.2540706e-02   4.6236004e-02   4.2846333e-03   2.3804816e-02   3.4391208e-02   4.2598984e-02  -1.4100676e-02  -1.1180606e-02  -5.0103329e-04   6.3071543e-02  -9.6729275e-02  -1.5551956e-01  -6.5438207e-02  -9.8329342e-02   1.0247548e-01
   1.1581283e-02   3.0626317e-03   1.1436199e-03   6.2799091e-03  -8.7961277e-04  -1.3444933e-02   1.0951907e-02  -4.2379502e-02  -1.2993616e-02  -6.4243767e-02   3.9085338e-02  -1.5855293e-02   5.1150042e-02   5.5534026e-02   7.2181447e-02   1.6974090e-02   1.0617352e-02  -7.7645442e-02  -1.2640439e-02   5.3577660e-02   6.6749164e-02   1.6136570e-01  -1.1796580e-01  -9.3351992e-02  -2.7361761e-01  -6.5505697e-02
  -3.2599204e-03   1.9160612e-03  -1.2441261e-02  -9.4820029e-03   1.0502096e-02  -2.3659937e-02  -1.5828306e-02  -9.5324287e-03  -1.5993054e-02  -5.6633540e-02  -1.4778859e-02  -1.9892871e-03  -1.5607993e-02   7.5418256e-02  -3.2561427e-02  -2.6561214e-02  -5.0329792e-02  -3.2905103e-02   3.6667232e-02  -8.2262250e-03   1.9773711e-03   2.5742644e-02  -6.3357270e-02  -1.1321268e-01  -1.4112756e-02  -1.4559166e-01
  -6.5193730e-03  -1.5573866e-02  -3.6628081e-04   1.3292868e-02   7.8128382e-05   7.8621074e-03   2.2091131e-02   4.3198278e-02   1.2776310e-02   6.5061126e-03   1.5958744e-02   7.0543529e-02   1.0617188e-02   4.5555374e-02   5.6895324e-02   8.7412072e-03   8.6197540e-02  -7.2279669e-02  -1.4264701e-01   4.7966661e-02   6.4781480e-02   2.2103429e-03  -1.6724539e-01  -6.0761538e-02   3.8658094e-01  -6.0508365e-02
  -3.1810321e-03  -1.1599752e-02   8.5045955e-03   1.6889421e-03  -3.8969649e-02  -1.5403567e-02   2.7420624e-02   4.5447452e-02   1.5655898e-03  -2.8756789e-02   3.7843371e-02   8.1828413e-02   9.0585421e-03   1.0334396e-01   6.2598939e-02   6.3071669e-02  -2.2429411e-03   3.6509415e-02  -5.1421582e-02  -2.4884259e-01  -5.0565438e-03   4.4316794e-02   1.0073486e-01  -4.4999310e-02  -1.3905167e-02   1.8038407e-02
  -5.6292434e-03  -6.0459184e-03  -4.5070158e-04   9.1272780e-03  -1.2825402e-02   7.8489783e-04   1.2035337e-02   5.7113561e-02  -2.7095033e-02  -3.1572735e-02  -1.9736654e-02  -9.7528988e-03  -4.1890908e-02   4.7675533e-03  -1.7705997e-02  -2.3135967e-02   1.0405590e-01   6.3241736e-02  -4.7679580e-02   1.5069509e-01  -3.1900959e-03   7.1225220e-02   8.6687168e-02   1.1434056e-01  -1.4685210e-01  -1.9486264e-02
  -3.1873785e-04   5.2057999e-03   4.5612886e-03  -1.3227376e-02   9.2601874e-03  -3.2206847e-02   7.6051040e-02  -5.7358995e-02   8.8811760e-02  -4.9291597e-02  -3.8270302e-03   1.2416017e-01   4.8586364e-03  -2.7841550e-02  -2.9386849e-03   4.2340506e-02  -8.8576789e-02  -5.7078166e-02   5.0493742e-02   1.0900227e-03   2.0255995e-02  -2.0804067e-02  -1.2324220e-01   9.1387584e-02  -3.2227100e-02  -3.9117243e-02
  -1.3336781e-02   4.4728659e-04   8.4997068e-03   4.6659807e-02   2.6373236e-02   2.9468954e-02  -3.8025730e-02   1.9858398e-03   2.6265796e-02   8.8704137e-03   3.3776245e-02  -7.8261056e-02  -5.6426369e-02   3.8399719e-02  -1.3856595e-02  -2.2792690e-02   2.4607931e-02   1.9106385e-02   8.3212041e-02   7.3859930e-03  -6.8741145e-02  -2.2310809e-02   1.4748810e-01   1.0786088e-01  -1.9988947e-02   1.4189649e-01
   7.9471940e-03  -4.6326356e-03  -8.1225935e-03  -1.5694372e-02  -3.0125031e-02  -1.0545141e-02   1.0618818e-02   2.9626675e-02  -4.9192347e-02  -1.9276833e-02  -1.3116111e-02  -7.0977725e-03   3.1944079e-02  -2.4681321e-02  -4.7758105e-02   7.9186545e-03  -2.7617175e-02  -1.7270399e-02  -1.8833454e-02  -4.7589012e-03  -3.3067894e-02   1.0740977e-01   2.0537651e-03  -7.5673521e-02   3.3392246e-02   5.2577425e-02
   9.6264996e-05  -5.8075856e-03  -8.4908649e-03  -1.2001023e-02   5.2148865e-02   5.7016278e-03   2.0124055e-02   3.4888128e-02   2.9426356e-02   4.2424722e-02   1.1199399e-02   8.5592930e-02  -4.5871611e-02  -2.3334393e-02  -1.2563947e-01  -4.2096873e-02   2.9449172e-02   5.4610344e-02  -7.3249524e-02  -1.6622632e-02  -8.9585954e-02  -1.5013974e-01   1.2215135e-02   5.3667705e-02   1.2886453e-01  -7.7444475e-02
   6.5620034e-04  -1.1068670e-03   2.2151882e-02   5.0876450e-03  -2.3833310e-02   2.0252594e-02  -1.3460447e-02  -1.0758796e-02   3.7231487e-03   3.7888089e-02  -5.6285898e-03   2.6020148e-02   4.1427569e-02   2.4109209e-03   2.4409741e-02   3.3982116e-02   4.9786852e-02   2.5876078e-03   2.9562907e-03   5.4309066e-04   4.0512005e-02  -9.0214790e-02  -1.7530119e-01  -4.2307126e-02  -1.1066437e-01   1.1230595e-01
   1.1834384e-02   3.0428334e-03   3.9784128e-03   1.1507262e-02  -3.6042250e-03  -9.7056421e-03   1.1194403e-02  -4.1043685e-02  -1.6760952e-02  -7.6793209e-02   3.4664194e-02  -1.7953307e-02   4.7111372e-02   5.7716479e-02   6.1348374e-02   1.4305001e-02   2.6843568e-02  -6.3602582e-02  -5.0487483e-03   4.6989970e-02   3.6833228e-02   1.3066358e-01  -1.1927867e-01  -1.1250018e-01  -2.2398435e-01  -6.0585018e-02
  -3.4485534e-03   1.9055973e-03  -1.1251884e-02  -6.8229909e-03   1.0210084e-02  -2.9052341e-02  -1.2827684e-02  -1.3417789e-02  -1.5804674e-02  -6.3620877e-02  -1.6766226e-02   8.3396466e-03  -5.2567280e-03   6.0746586e-02  -3.4271891e-02  -3.1527788e-02  -3.8994635e-02  -5.1634831e-02   2.4822061e-02  -7.0997119e-03   9.8406697e-03   1.0115366e-02  -7.2011329e-02  -1.1729702e-01  -7.3218429e-03  -1.0565999e-01
  -6.2618267e-03  -1.5247312e-02  -1.5907526e-04   1.4404049e-02   1.7024113e-03   7.9092392e-04   2.3948324e-02   4.1282042e-02   2.1298912e-02   5.7280629e-03   1.9317124e-02   7.7705415e-02   1.6364131e-02   3.1326642e-02   6.5986206e-02  -2.9339343e-03   6.6898973e-02  -7.6903641e-02  -1.7970006e-01   6.4496755e-02   3.9262902e-02   3.5652293e-03  -1.9455890e-01  -7.6080520e-02   3.7883899e-01  -6.0759275e-02
  -2.2628496e-03  -1.1980351e-02   9.4368712e-03  -7.2815151e-04  -3.6412710e-02  -1.5176833e-02   3.0553906e-02   4.2416992e-02   1.0246324e-02  -2.1879355e-02   3.7248711e-02   8.4243961e-02   5.6259939e-03   9.2302487e-02   6.5868431e-02   6.5452294e-02  -1.3080863e-02   3.2917474e-02  -6.3445988e-02  -2.4433873e-01  -2.0787319e-02   5.4779396e-02   8.9103264e-02  -2.5164218e-02  -1.9357394e-02   1.7285023e-03
  -5.4932101e-03  -6.7027914e-03   6.4089869e-04   1.0953015e-02  -1.2203554e-02   1.2835678e-03   9.2514257e-03   5.6310508e-02  -2.7082426e-02  -2.2012200e-02  -3.1799528e-02  -1.6703919e-03  -5.5127470e-02  -1.1394349e-02  -2.2439101e-02  -1.9944936e-02   1.3098819e-01   5.0006917e-02  -5.4875552e-02   1.3134157e-01  -2.3885793e-02   5.7440491e-02   8.0712290e-02   1.5408067e-01  -1.4784261e-01  -2.0068505e-02
   1.8805787e-04   5.6640797e-03   4.3996828e-03  -1.3572901e-02   8.0793421e-03  -3.3655607e-02   7.0306425e-02  -5.7816413e-02   9.1258468e-02  -4.6709299e-02  -4.3309623e-03   1.1397054e-01  -9.7405452e-04  -2.5595833e-02  -1.1611422e-02   4.6594539e-02  -9.1770508e-02  -4.2696208e-02   4.2540674e-02   2.4275953e-02   2.3724147e-02  -3.3922033e-02  -1.1814960e-01   9.0395426e-02  -4.8120639e-02  -4.9244657e-02
  -1.4274314e-02  -1.1936310e-03   9.7229372e-03   5.0203497e-02   3.4083757e-02   3.0937677e-02  -3.7015152e-02   3.6783213e-03   3.1195674e-02   9.5839643e-03   3.8566618e-02  -8.7464745e-02  -5.0168804e-02   4.3639230e-02  -9.8610016e-03  -3.1170870e-02   3.8784071e-02   2.0803505e-02   7.3552776e-02  -1.0109100e-02  -3.4630368e-02  -3.2756768e-02   1.1228816e-01   1.1075301e-01   2.0760504e-04   1.4598012e-01
   8.0839805e-03  -3.3706592e-03  -8.0459625e-03  -1.9360559e-02  -3.4287203e-02  -9.7148280e-03   4.2443894e-03   2.0991247e-02  -4.9948882e-02  -1.7040590e-02  -1.4665854e-02   1.9217565e-03   2.5580126e-02  -1.5633902e-02  -4.4229045e-02   1.4354457e-02  -4.1508830e-02  -1.1670404e-02  -7.3169286e-03  -9.7233855e-03  -2.6848121e-02   8.9061967e-02   1.5909480e-02  -5.7695465e-02   1.9421869e-02   6.5231849e-02
  -1.6490159e-04  -6.7462372e-03  -9.1865101e-03  -1.2155241e-02   4.4583056e-02   3.0207646e-03   1.6951528e-02   2.5253960e-02   2.6529695e-02   3.8544404e-02   1.5011805e-02   8.2044412e-02  -3.5633210e-02  -1.8208230e-02  -1.1984538e-01  -4.9818378e-02   1.0317272e-02   4.1171548e-02  -4.7148040e-02  -1.8191759e-03  -6.5422896e-02  -1.5564213e-01  -1.5177601e-03   4.5739278e-02   9.8950014e-02  -7.2270313e-02
   1.7749061e-03  -2.6899414e-04   1.9189494e-02   3.0650794e-03  -2.5833760e-02   1.6105886e-02  -1.3550378e-02  -1.4648218e-02  -8.2652118e-04   4.8928339e-02  -1.6176505e-03   2.6114991e-02   3.3487798e-02   2.4003863e-03   2.9410215e-02   3.3465298e-02   5.2716237e-02   1.8289687e-02   1.7370069e-02   1.9977037e-03   2.0719319e-02  -7.7117263e-02  -1.7193346e-01  -9.6592029e-03  -1.1549978e-01   1.1457866e-01
   1.1721300e-02   2.8947428e-03   6.2944275e-03   1.5369427e-02  -6.4210232e-03  -5.1171219e-03   1.1729268e-02  -3.8293425e-02  -2.2191426e-02  -8.6048984e-02   3.2490073e-02  -1.9621274e-02   4.2210566e-02   5.3743139e-02   4.9698354e-02   1.2837613e-02   3.6955817e-02  -4.8687992e-02   2.8810855e-03   3.8993653e-02   7.1285567e-03   9.5555616e-02  -1.1210976e-01  -1.2166510e-01  -1.6713553e-01  -5.2586326e-02
  -3.4732154e-03   1.8371270e-03  -9.5346951e-03  -3.9412720e-03   9.2076503e-03  -3.4029352e-02  -7.1652149e-03  -1.7978626e-02  -1.5341218e-02  -6.8731065e-02  -1.3835968e-02   1.3470875e-02   4.1412234e-03   3.9027290e-02  -3.2594851e-02  -3.5017789e-02  -3.0217368e-02  -6.1693216e-02   9.7537047e-03  -5.0722864e-03   1.4301797e-02   3.0053252e-03  -6.7397233e-02  -1.1563112e-01   5.5688748e-03  -6.3085145e-02
  -6.0267207e-03  -1.4626777e-02   3.1273597e-04   1.5278543e-02   4.5568402e-03  -6.3120892e-03   2.5865773e-02   3.7445688e-02   2.9385945e-02   4.8958797e-03   2.3115264e-02   8.0239868e-02   2.3081211e-02   1.5995629e-02   7.4034069e-02  -1.6081905e-02   4.9656250e-02  -7.9463360e-02  -2.1330180e-01   7.6638068e-02   1.9130014e-02   4.6549666e-03  -2.1932699e-01  -9.0605309e-02   3.6069268e-01  -5.4923821e-02
  -1.3202004e-03  -1.2103211e-02   9.9386980e-03  -3.3746843e-03  -3.3105346e-02  -1.4054899e-02   3.3480863e-02   3.9328932e-02   1.8319435e-02  -1.3781516e-02   3.6119776e-02   8.6082040e-02   1.6840170e-03   7.9611740e-02   6.7648539e-02   6.7669223e-02  -2.3577035e-02   2.9849194e-02  -7.8761053e-02  -2.3541625e-01  -3.5980196e-02   6.1007028e-02   7.4290900e-02  -2.3318835e-03  -1.7585308e-02  -1.2962147e-02
  -5.2137541e-03  -6.9586639e-03   1.7432620e-03   1.1991903e-02  -1.1674560e-02   1.6042744e-03   5.8847937e-03   5.3719764e-02  -2.7118023e-02  -1.2032814e-02  -4.2994424e-02   6.6364365e-03  -6.5863041e-02  -2.7751593e-02  -2.7373379e-02  -1.4598910e-02   1.5464701e-01   3.3206568e-02  -6.4494503e-02   1.1168807e-01  -3.9490944e-02   3.7605982e-02   7.6521569e-02   1.9051068e-01  -1.4645023e-01  -2.2693596e-02
   5.8569883e-04   6.2575351e-03   4.0917810e-03  -1.3147855e-02   6.7003902e-03  -3.3302976e-02   6.4984830e-02  -5.5718451e-02   9.2541667e-02  -4.3952196e-02  -4.5408879e-03   1.0095401e-01  -8.2729972e-03  -2.5225130e-02  -2.2394687e-02   5.0786614e-02  -9.2429537e-02  -2.6533835e-02   3.6577653e-02   4.1128617e-02   2.4152807e-02  -4.0096535e-02  -1.1549799e-01   8.7708746e-02  -6.2146395e-02  -6.4851373e-02
  -1.5416708e-02  -2.5866672e-03   1.1044485e-02   5.3534418e-02   3.9891342e-02   3.1259290e-02  -3.5181219e-02   4.0284164e-03   3.4852863e-02   1.1169135e-02   4.3080860e-02  -9.1619091e-02  -4.3677527e-02   4.7744830e-02  -4.7690987e-03  -3.8645229e-02   5.4549189e-02   1.7922633e-02   5.9810692e-02  -2.6218248e-02   3.6553140e-03  -4.1339520e-02   7.4557122e-02   1.0507210e-01   2.6210545e-02   1.3754389e-01
   8.7471873e-03  -2.2280413e-03  -7.8782816e-03  -2.3638641e-02  -3.7511204e-02  -7.5760130e-03  -2.8060253e-03   1.2263306e-02  -5.0007084e-02  -1.2150360e-02  -1.8877829e-02   1.2775989e-02   1.7998663e-02  -8.5536829e-03  -3.7230518e-02   2.4081303e-02  -4.9744215e-02  -4.2055605e-03   2.3932147e-03  -1.2706056e-02  -1.5060327e-02   6.5215899e-02   2.3404550e-02  -3.9226703e-02   3.0338744e-03   6.5496491e-02
  -4.8038609e-04  -7.2684284e-03  -9.1435967e-03  -1.1961359e-02   3.5306339e-02  -4.9251763e-04   1.2414026e-02   1.6774870e-02   2.1736934e-02   3.5119813e-02   1.7781665e-02   7.5280704e-02  -2.7059573e-02  -1.3034696e-02  -1.0831918e-01  -5.0396023e-02  -5.8426235e-03   2.4295046e-02  -2.0252261e-02   1.1240862e-02  -4.4293488e-02  -1.5105403e-01  -1.8180577e-02   3.3745306e-02   6.5095256e-02  -6.4166163e-02
   2.9169761e-03   4.4193830e-04   1.5567880e-02   5.6725352e-04  -2.7282973e-02   1.0627650e-02  -1.1412421e-02  -1.4529654e-02  -5.5946841e-03   5.6888836e-02   3.5590554e-03   2.2922989e-02   2.3198036e-02   2.7419427e-03   3.8215616e-02   3.3021319e-02   5.1868060e-02   3.1537053e-02   2.9864407e-02   3.9038787e-03   4.3709159e-03  -5.6794004e-02  -1.4720435e-01   2.9873314e-02  -1.1504810e-01   1.1148706e-01
   1.1278191e-02   2.5625636e-03   7.9621102e-03   1.7796533e-02  -9.0581980e-03  -3.8000886e-04   1.2366460e-02  -3.4528827e-02  -2.8424839e-02  -9.0668877e-02   3.2217608e-02  -2.0582714e-02   3.7096225e-02   4.4222477e-02   3.8025488e-02   1.1887722e-02   4.0073930e-02  -3.3828734e-02   1.0540223e-02   3.0290069e-02  -1.8730639e-02   6.0526123e-02  -9.7322518e-02  -1.2000771e-01  -1.0946951e-01  -4.2275805e-02
  -3.2945702e-03   1.6658555e-03  -7.3203952e-03  -1.0738355e-03   7.8924224e-03  -3.8250790e-02   9.7339887e-05  -2.2532354e-02  -1.4042535e-02  -7.0913637e-02  -6.8816075e-03   1.3808510e-02   1.1864320e-02   1.2301488e-02  -2.7050922e-02  -3.6012615e-02  -2.5249820e-02  -6.1685232e-02  -5.9893716e-03  -1.0212678e-03   1.4597878e-02   2.6103148e-03  -5.2192864e-02  -1.0860824e-01   2.2751169e-02  -2.0826173e-02
  -5.8423312e-03  -1.3691183e-02   9.7049191e-04   1.5763766e-02   8.1630869e-03  -1.3309160e-02   2.7962885e-02   3.1960693e-02   3.6448770e-02   3.8981778e-03   2.7203951e-02   7.8685318e-02   3.0698067e-02   4.4597016e-04   8.0742883e-02  -3.0312964e-02   3.4956319e-02  -8.0678912e-02  -2.4237254e-01   8.4304345e-02   4.3786811e-03   6.2233700e-03  -2.3956459e-01  -1.0432685e-01   3.3442758e-01  -4.4423705e-02
  -3.6025125e-04  -1.1965157e-02   1.0019898e-02  -6.1939086e-03  -2.9269152e-02  -1.2183509e-02   3.6270163e-02   3.5970903e-02   2.5747798e-02  -4.8993583e-03   3.4416883e-02   8.7544082e-02  -2.5695923e-03   6.5922193e-02   6.7783367e-02   7.0291600e-02  -3.3391818e-02   2.7242581e-02  -9.6760247e-02  -2.2260213e-01  -4.9089991e-02   6.2105615e-02   5.6925270e-02   2.2583330e-02  -9.1765896e-03  -2.5734729e-02
  -4.8050636e-03  -6.8242311e-03   2.8209500e-03   1.2198274e-02  -1.1209717e-02   1.8231992e-03   2.1271809e-03   4.9362262e-02  -2.7219242e-02  -2.1473329e-03  -5.2502834e-02   1.4123443e-02  -7.3985605e-02  -4.3251923e-02  -3.2569901e-02  -7.2430767e-03   1.7434056e-01   1.3933251e-02  -7.5862641e-02   9.2936408e-02  -4.9489409e-02   1.2336374e-02   7.5261771e-02   2.2364199e-01  -1.4218826e-01  -2.6783131e-02
   7.3429075e-04   6.9466068e-03   3.6408543e-03  -1.1629827e-02   5.6096545e-03  -3.0662485e-02   6.1195611e-02  -5.0945228e-02   9.1703264e-02  -4.1183319e-02  -4.8091855e-03   8.5822945e-02  -1.5994014e-02  -2.8803682e-02  -3.5508978e-02   5.3754804e-02  -8.8147075e-02  -1.1045329e-02   3.5315810e-02   4.9940288e-02   2.0908308e-02  -3.6802124e-02  -1.1640511e-01   8.5340216e-02  -7.3072434e-02  -8.4200675e-02
  -1.6616336e-02  -3.7273682e-03   1.2267115e-02   5.6546247e-02   4.3052768e-02   3.0084406e-02  -3.2230876e-02   3.5909240e-03   3.7106234e-02   1.3489337e-02   4.6893035e-02  -8.9109979e-02  -3.7860621e-02   4.9604873e-02   1.3530518e-03  -4.4128833e-02   7.1322096e-02   9.1637419e-03   4.1068321e-02  -3.8340503e-02   4.1167668e-02  -4.5818708e-02   3.6002995e-02   8.8232159e-02   6.0670576e-02   1.1421064e-01
   9.8761235e-03  -1.2388120e-03  -7.7919621e-03  -2.8127027e-02  -3.9979227e-02  -4.3812325e-03  -9.1587054e-03   5.1323339e-03  -4.9769846e-02  -5.3916809e-03  -2.5736273e-02   2.5078555e-02   1.0267120e-02  -5.1347509e-03  -2.7930847e-02   3.6493755e-02  -5.1863627e-02   3.5816987e-03   9.7506964e-03  -1.3244147e-02  -3.4197916e-03   4.0821663e-02   2.6010983e-02  -2.4446739e-02  -1.5600854e-02   5.1000084e-02
  -9.1655909e-04  -7.3542316e-03  -8.3017830e-03  -1.1498441e-02   2.4949268e-02  -4.9841723e-03   6.8593765e-03   9.0679292e-03   1.5310422e-02   3.2969511e-02   1.9154476e-02   6.4825982e-02  -2.0699256e-02  -9.1075123e-03  -9.2123311e-02  -4.3345208e-02  -1.7197378e-02   6.0903006e-03   5.9357355e-03   2.2037324e-02  -2.7250911e-02  -1.3619050e-01  -3.5727622e-02   2.0110809e-02   3.0676377e-02  -5.5690263e-02
   3.9287677e-03   9.7517699e-04   1.1612937e-02  -2.1330379e-03  -2.7820017e-02   4.5834288e-03  -7.1618008e-03  -1.0901680e-02  -1.0240228e-02   6.0734763e-02   9.3370502e-03   1.6868795e-02   1.1483589e-02   2.2598311e-03   4.9546375e-02   3.2656320e-02   4.8252453e-02   4.0666966e-02   3.8413515e-02   6.1067732e-03  -8.0179038e-03  -2.9458900e-02  -1.0489369e-01   7.3102121e-02  -1.1188539e-01   1.0524154e-01
   1.0538366e-02   2.0153636e-03   8.9062820e-03   1.8756458e-02  -1.1261813e-02   3.8232713e-03   1.2841435e-02  -3.0105414e-02  -3.4596396e-02  -8.9508676e-02   3.3289776e-02  -2.0654802e-02   3.2341438e-02   3.0110025e-02   2.7112386e-02   1.0651113e-02   3.5755232e-02  -1.9573177e-02   1.7331680e-02   2.1573912e-02  -3.7402004e-02   2.9786077e-02  -7.5813495e-02  -1.0680044e-01  -5.6299627e-02  -3.0922582e-02
  -2.8906029e-03   1.3699645e-03  -4.6935991e-03   1.5493037e-03   6.6233079e-03  -4.1417225e-02   7.6967466e-03  -2.6522221e-02  -1.1479527e-02  -6.9308230e-02   2.7578695e-03   1.0378315e-02   1.7395353e-02  -1.6710364e-02  -1.7830595e-02  -3.3857003e-02  -2.4639254e-02  -5.1277715e-02  -1.9951911e-02   5.8872563e-03   1.0135082e-02   6.1966020e-03  -3.0705166e-02  -9.7208944e-02   4.2384828e-02   1.8255204e-02
  -5.7039692e-03  -1.2437015e-02   1.6957894e-03   1.5702794e-02   1.1947360e-02  -2.0079314e-02   3.0347050e-02   2.5223516e-02   4.1931135e-02   2.6367333e-03   3.1273827e-02   7.3946970e-02   3.8886320e-02  -1.4561008e-02   8.5908592e-02  -4.4901283e-02   2.3163562e-02  -8.1323663e-02  -2.6614745e-01   8.7767694e-02  -5.5677415e-03   8.9480480e-03  -2.5330636e-01  -1.1729999e-01   3.0261319e-01  -3.1434593e-02
   6.0893771e-04  -1.1570465e-02   9.6983983e-03  -9.1256278e-03  -2.5171270e-02  -9.8045667e-03   3.8980092e-02   3.2106579e-02   3.2571489e-02   4.2809034e-03   3.2154288e-02   8.8800683e-02  -6.9407365e-03   5.2018543e-02   6.6141281e-02   7.3881255e-02  -4.2250277e-02   2.5039507e-02  -1.1675371e-01  -2.0630181e-01  -5.8657638e-02   5.7512972e-02   3.7855523e-02   4.8306657e-02   4.7410276e-03  -3.6503300e-02
  -4.2851792e-03  -6.3466927e-03   3.8290999e-03   1.1601626e-02  -1.0730734e-02   2.0756383e-03  -1.7238115e-03   4.3337920e-02  -2.7386843e-02   7.1222606e-03  -5.9537361e-02   1.9703192e-02  -7.9420085e-02  -5.6990507e-02  -3.8027962e-02   1.7914273e-03   1.8950671e-01  -6.5369986e-03  -8.8204242e-02   7.5990435e-02  -5.3791041e-02  -1.7199079e-02   7.7594317e-02   2.5355302e-01  -1.3482682e-01  -3.1314713e-02
   5.5011721e-04   7.6749106e-03   3.0906990e-03  -8.8106989e-03   5.0319115e-03  -2.5675421e-02   5.9715916e-02  -4.3756817e-02   8.8167411e-02  -3.8795373e-02  -5.3839209e-03   6.9592682e-02  -2.2959182e-02  -3.7262680e-02  -5.0989213e-02   5.4849195e-02  -7.7714094e-02   2.0124077e-03   4.0620017e-02   4.9973429e-02   1.4440344e-02  -2.3615872e-02  -1.2070116e-01   8.4545696e-02  -8.0563922e-02  -1.0529689e-01
  -1.7735488e-02  -4.6391930e-03   1.3233818e-02   5.9198556e-02   4.3183331e-02   2.7152124e-02  -2.8118322e-02   2.8149303e-03   3.8038227e-02   1.6324627e-02   4.9735486e-02  -7.9240948e-02  -3.3666444e-02   4.8434405e-02   8.2417530e-03  -4.6683013e-02   8.8295790e-02  -5.6152075e-03   1.6769650e-02  -4.4621118e-02   7.3783004e-02  -4.4911672e-02  -2.0529451e-03   5.9505906e-02   1.0499226e-01   7.5824320e-02
   1.1349679e-02  -4.3196756e-04  -7.9057430e-03  -3.2402124e-02  -4.1781906e-02  -4.8423634e-04  -1.3636524e-02   9.9655186e-04  -4.9556497e-02   2.2685674e-03  -3.4869252e-02   3.8184750e-02   3.5006864e-03  -6.3870969e-03  -1.7218094e-02   5.0263479e-02  -4.7917445e-02   1.0488213e-02   1.4503581e-02  -1.1312181e-02   3.2044651e-03   2.0192760e-02   2.5690760e-02  -1.6433705e-02  -3.6097532e-02   2.1635394e-02
  -1.5349754e-03  -7.0141505e-03  -6.6748059e-03  -1.0875831e-02   1.4143659e-02  -1.0500727e-02   6.4129769e-04   1.6435902e-03   7.5542534e-03   3.2698817e-02   1.8867736e-02   5.0442788e-02  -1.6834142e-02  -7.5245174e-03  -7.2395276e-02  -2.8765175e-02  -2.2498616e-02  -1.1481937e-02   2.9924517e-02   3.0217237e-02  -1.5062049e-02  -1.1134027e-01  -5.2187103e-02   7.1833587e-03  -1.0518446e-03  -4.9186158e-02
   4.6583096e-03   1.3202614e-03   7.6177362e-03  -4.7096071e-03  -2.7210205e-02  -1.1573075e-03  -1.2285574e-03  -4.5967429e-03  -1.4479114e-02   5.9732224e-02   1.4929660e-02   8.6053508e-03  -6.6985038e-04   4.2034745e-04   6.1515752e-02   3.2163040e-02   4.3219548e-02   4.3998344e-02   4.1354445e-02   8.1189399e-03  -1.5931140e-02   3.7827255e-03  -5.0263348e-02   1.1634384e-01  -1.0842721e-01   9.7548467e-02
   9.5302257e-03   1.2508981e-03   9.1075245e-03   1.8254347e-02  -1.2815124e-02   6.8957939e-03   1.2851627e-02  -2.5320721e-02  -3.9912458e-02  -8.1769516e-02   3.5006363e-02  -1.9787591e-02   2.8406881e-02   1.2616596e-02   1.7699793e-02   8.3188406e-03   2.4057415e-02  -6.1292324e-03   2.2719361e-02   1.3498355e-02  -4.6205331e-02   6.9685817e-03  -4.8517879e-02  -8.1571654e-02  -1.1543226e-02  -2.0159405e-02
  -2.2642625e-03   9.5427620e-04  -1.8003703e-03   3.7201122e-03   5.6798686e-03  -4.3255802e-02   1.4317914e-02  -2.9545362e-02  -7.4398001e-03  -6.3383953e-02   1.3438164e-02   4.6545030e-03   2.0435634e-02  -4.4801594e-02  -5.8203804e-03  -2.8405959e-02  -2.8236728e-02  -3.1293648e-02  -3.0053294e-02   1.5982985e-02   6.5140514e-04   1.0503901e-02  -8.1394022e-03  -8.2957238e-02   6.2872623e-02   5.1313833e-02
  -5.5719215e-03  -1.0882857e-02   2.3435759e-03   1.4945700e-02   1.5302859e-02  -2.6495700e-02   3.3080607e-02   1.7722309e-02   4.5351823e-02   1.0564541e-03   3.4873293e-02   6.7163039e-02   4.7069183e-02  -2.8400421e-02   8.9392791e-02  -5.8775292e-02   1.4528728e-02  -8.2050275e-02  -2.8416102e-01   8.7524741e-02  -1.1647226e-02   1.3265620e-02  -2.5881860e-01  -1.2946359e-01   2.6782991e-01  -1.8594144e-02
   1.5723090e-03  -1.0929230e-02   8.9979744e-03  -1.2096268e-02  -2.1086012e-02  -7.2226379e-03   4.1678887e-02   2.7502588e-02   3.8889597e-02   1.3237306e-02   2.9406426e-02   8.9970661e-02  -1.1239785e-02   3.8719953e-02   6.2619247e-02   7.8887666e-02  -4.9896165e-02   2.3148585e-02  -1.3795123e-01  -1.8685170e-01  -6.3426289e-02   4.7136898e-02   1.8025564e-02   7.3383536e-02   2.2626546e-02  -4.5343905e-02
  -3.6760030e-03  -5.6077974e-03   4.7142450e-03   1.0313574e-02  -1.0146232e-02   2.5328945e-03  -5.2712350e-03   3.5845789e-02  -2.7595430e-02   1.5276773e-02  -6.3385790e-02   2.2354843e-02  -8.2047429e-02  -6.8209319e-02  -4.3684838e-02   1.2036832e-02   1.9970376e-01  -2.6814562e-02  -1.0069950e-01   6.1359173e-02  -5.2693116e-02  -4.9310824e-02   8.3660251e-02   2.8015955e-01  -1.2440523e-01  -3.4953896e-02
   2.2150802e-05   8.3773194e-03   2.5105048e-03  -4.7191497e-03   4.9517139e-03  -1.8803530e-02   6.0785112e-02  -3.4939326e-02   8.1874687e-02  -3.7333784e-02  -6.4232276e-03   5.3644725e-02  -2.8107407e-02  -5.0106214e-02  -6.8328745e-02   5.3890552e-02  -6.1391266e-02   1.1560774e-02   5.3038197e-02   4.1956738e-02   6.3274676e-03  -2.5957627e-03  -1.2680243e-01   8.5799149e-02  -8.5122639e-02  -1.2585146e-01
  -1.8667323e-02  -5.3667737e-03   1.3851528e-02   6.1493937e-02   4.0336342e-02   2.2350233e-02  -2.3107035e-02   1.9371049e-03   3.7959792e-02   1.9382473e-02   5.1630257e-02  -6.2493895e-02  -3.1870602e-02   4.4046363e-02   1.5397636e-02  -4.5751563e-02   1.0424463e-01  -2.5263860e-02  -1.2997747e-02  -4.4163085e-02   9.8734996e-02  -3.8507496e-02  -3.8749690e-02   2.0307416e-02   1.5912095e-01   2.5178107e-02
   1.2995846e-02   1.6450520e-04  -8.2523864e-03  -3.6066173e-02  -4.2834971e-02   3.7064583e-03  -1.5451970e-02   7.3373999e-04  -4.9510940e-02   9.7590063e-03  -4.5493142e-02   5.1027918e-02  -1.2890895e-03  -1.2392755e-02  -5.6750500e-03   6.3424036e-02  -3.8669519e-02   1.5836041e-02   1.6751283e-02  -7.3754591e-03   1.5261249e-03   6.2920111e-03   2.4654675e-02  -1.6492461e-02  -5.7936788e-02  -1.9780949e-02
  -2.3776834e-03  -6.2898583e-03  -4.3579837e-03  -1.0221306e-02   3.4891939e-03  -1.6974632e-02  -5.8860986e-03  -5.9714692e-03  -1.2078569e-03   3.4633833e-02   1.6800615e-02   3.2242378e-02  -1.5465616e-02  -9.0638465e-03  -5.0324523e-02  -7.4032865e-03  -2.1232359e-02  -2.6734225e-02   5.0304214e-02   3.5582987e-02  -8.1185238e-03  -7.7318707e-02  -6.5799482e-02  -2.9897358e-03  -2.7182052e-02  -4.6630777e-02
   4.9713085e-03   1.5066111e-03   3.8238801e-03  -6.8232051e-03  -2.5388231e-02  -5.6900486e-03   5.6836030e-03   3.3562578e-03  -1.8108967e-02   5.3496978e-02   1.9461903e-02  -1.0839422e-03  -1.2290528e-02  -2.4892849e-03   7.1793856e-02   3.1116932e-02   3.8229731e-02   4.0052407e-02   3.7570855e-02   9.0560105e-03  -1.8762299e-02   4.0984705e-02   1.0512796e-02   1.5551468e-01  -1.0648283e-01   8.9217684e-02
   8.2794458e-03   2.9673625e-04   8.6009905e-03   1.6340399e-02  -1.3554031e-02   8.3883483e-03   1.2102956e-02  -2.0412933e-02  -4.3711384e-02  -6.7141094e-02   3.6601486e-02  -1.8090506e-02   2.5615776e-02  -6.8846333e-03   1.0445227e-02   4.2074905e-03   5.5946047e-03   6.5524706e-03   2.6281182e-02   6.6408492e-03  -4.3459217e-02  -5.1454004e-03  -1.6466075e-02  -4.4315726e-02   2.2416408e-02  -1.1770473e-02
  -1.4493136e-03   4.4947056e-04   1.1547172e-03   5.2692928e-03   5.2324795e-03  -4.3516592e-02   1.8754086e-02  -3.1357942e-02  -1.9872366e-03  -5.3050890e-02   2.3379924e-02  -1.6522282e-03   2.0920777e-02  -6.8566488e-02   7.4421796e-03  -2.0093218e-02  -3.5261953e-02  -3.6924688e-03  -3.4797389e-02   2.8926382e-02  -1.3609705e-02   1.2203997e-02   1.0201762e-02  -6.7841341e-02   8.2997441e-02   7.5504660e-02
  -5.3740401e-03  -9.0718799e-03   2.7573361e-03   1.3359115e-02   1.7656836e-02  -3.2398600e-02   3.6152125e-02   1.0001048e-02   4.6340508e-02  -8.2989540e-04   3.7456407e-02   5.9533899e-02   5.4479879e-02  -4.0563224e-02   9.1074446e-02  -7.0561153e-02   9.1646755e-03  -8.3216695e-02  -2.9617227e-01   8.4142475e-02  -1.4932531e-02   1.9234632e-02  -2.5478148e-01  -1.4046122e-01   2.3239925e-01  -8.5902200e-03
   2.5022564e-03  -1.0056327e-02   7.9479741e-03  -1.5002228e-02  -1.7256631e-02  -4.7605829e-03   4.4470829e-02   2.1963320e-02   4.4838612e-02   2.1421051e-02   2.6313516e-02   9.1089151e-02  -1.5274712e-02   2.6768301e-02   5.7123965e-02   8.5554097e-02  -5.6045837e-02   2.1429292e-02  -1.5943056e-01  -1.6460778e-01  -6.2447683e-02   3.1468814e-02  -1.6598774e-03   9.6375704e-02   4.2661131e-02  -5.2431918e-02
  -3.0036378e-03  -4.7200630e-03   5.4161298e-03   8.5279011e-03  -9.3967771e-03   3.3686321e-03  -8.0364022e-03   2.7202890e-02  -2.7784328e-02   2.1878598e-02  -6.3454264e-02   2.1244944e-02  -8.1640935e-02  -7.6267070e-02  -4.9413793e-02   2.2965735e-02   2.0461104e-01  -4.5468345e-02  -1.1255670e-01   4.9083391e-02  -4.6782642e-02  -8.1868474e-02   9.3095816e-02   3.0296516e-01  -1.1119765e-01  -3.6254735e-02
  -7.8482617e-04   8.9892640e-03   1.9746580e-03   2.8899054e-04   5.1908105e-03  -1.1038938e-02   6.3981763e-02  -2.5869034e-02   7.3326127e-02  -3.7356060e-02  -8.0265830e-03   3.9716057e-02  -3.0732261e-02  -6.5403504e-02  -8.6205857e-02   5.1036754e-02  -4.0880208e-02   1.7024546e-02   7.1531500e-02   2.8390960e-02  -9.1521366e-04   2.1783358e-02  -1.3189779e-01   8.8955150e-02  -8.7868879e-02  -1.4327015e-01
  -1.9351776e-02  -5.9655648e-03   1.4102470e-02   6.3451039e-02   3.5013842e-02   1.5760370e-02  -1.7763025e-02   9.3208532e-04   3.7386560e-02   2.2306954e-02   5.2976804e-02  -4.0638387e-02  -3.2827810e-02   3.7012657e-02   2.2058216e-02  -4.1356150e-02   1.1738783e-01  -4.7405662e-02  -4.7250612e-02  -3.7115925e-02   1.1484459e-01  -2.7621576e-02  -7.3654051e-02  -2.5918355e-02   2.2139884e-01  -3.1700967e-02
   1.4605529e-02   5.2290268e-04  -8.7606388e-03  -3.8785728e-02  -4.2867105e-02   7.7782951e-03  -1.4335258e-02   4.5617296e-03  -4.9556743e-02   1.6006810e-02  -5.6402682e-02   6.2018559e-02  -3.2872993e-03  -2.2187019e-02   6.2856619e-03   7.3626424e-02  -2.5747264e-02   1.9553393e-02   1.7045498e-02  -2.3835878e-03  -9.7072817e-03   3.3475719e-04   2.5097457e-02  -2.3900104e-02  -8.0580552e-02  -6.7280022e-02
  -3.4538319e-03  -5.2554113e-03  -1.5293605e-03  -9.6647107e-03  -6.4732691e-03  -2.4220356e-02  -1.2366566e-02  -1.4112857e-02  -1.0647625e-02   3.8780612e-02   1.3020895e-02   1.0790992e-02  -1.6313605e-02  -1.4089500e-02  -2.7152138e-02   1.9317967e-02  -1.3707393e-02  -3.8333235e-02   6.5833218e-02   3.8072897e-02  -6.3460016e-03  -3.5518882e-02  -7.5145272e-02  -8.8585815e-03  -4.5382185e-02  -4.9498745e-02
   4.7685012e-03   1.5967588e-03   4.1404553e-04  -8.1654016e-03  -2.2480131e-02  -8.1590845e-03   1.2673635e-02   1.1870451e-02  -2.1016328e-02   4.2042017e-02   2.2123113e-02  -1.1368450e-02  -2.2489189e-02  -5.3454712e-03   7.7860364e-02   2.8912685e-02   3.4611949e-02   2.7803076e-02   2.6649578e-02   7.6769382e-03  -1.5838485e-02   7.9491808e-02   7.0925283e-02   1.8630166e-01  -1.0693356e-01   7.9969673e-02
   6.8150458e-03  -7.9119469e-04   7.4726351e-03   1.3124368e-02  -1.3378090e-02   8.0536029e-03   1.0360944e-02  -1.5569347e-02  -4.5505789e-02  -4.5931707e-02   3.7326115e-02  -1.5841376e-02   2.4138522e-02  -2.6941899e-02   5.8735619e-03  -2.1075493e-03  -1.8421211e-02   1.8665197e-02   2.7757125e-02   1.4707031e-03  -2.8754009e-02  -4.8699514e-03   1.9123196e-02   4.2486294e-03   4.4710555e-02  -7.4202745e-03
  -5.1276385e-04  -9.3057760e-05   3.9218841e-03   6.0827781e-03   5.3288685e-03  -4.1985141e-02   2.0063797e-02  -3.1864701e-02   4.5140946e-03  -3.8734350e-02   3.0855239e-02  -6.8216493e-03   1.9030652e-02  -8.4770088e-02   1.9901068e-02  -9.9168325e-03  -4.4417504e-02   2.8564266e-02  -3.3407359e-02   4.3633861e-02  -3.1754402e-02   8.3623834e-03   1.9714862e-02  -5.4167132e-02   1.0191752e-01   8.8089976e-02
  -5.0127885e-03  -7.0718884e-03   2.7851537e-03   1.0833990e-02   1.8532741e-02  -3.7568081e-02   3.9459482e-02   2.6262190e-03   4.4661753e-02  -2.9238826e-03   3.8456099e-02   5.2132536e-02   6.0274665e-02  -5.0610831e-02   9.0784608e-02  -7.8674906e-02   6.9971018e-03  -8.4733280e-02  -3.0203029e-01   7.8094679e-02  -1.6416678e-02   2.6464417e-02  -2.4042351e-01  -1.4950917e-01   1.9811536e-01  -3.6908302e-03
   3.3542475e-03  -8.9709103e-03   6.5854622e-03  -1.7688386e-02  -1.3866097e-02  -2.7112233e-03   4.7523916e-02   1.5369605e-02   5.0570624e-02   2.8260333e-02   2.3086476e-02   9.2070335e-02  -1.8832502e-02   1.6724071e-02   4.9525066e-02   9.3856722e-02  -6.0355622e-02   1.9703664e-02  -1.8009139e-01  -1.4005888e-01  -5.5157467e-02   1.1654438e-02  -2.0457511e-02   1.1602969e-01   6.2871531e-02  -5.7982077e-02
  -2.2983503e-03  -3.8216006e-03   5.8696474e-03   6.5118235e-03  -8.4960571e-03   4.7207914e-03  -9.4879655e-03   1.7856841e-02  -2.7847313e-02   2.6590173e-02  -5.9308346e-02   1.5850202e-02  -7.7840715e-02  -8.0592380e-02  -5.5006890e-02   3.4070340e-02   2.0403530e-01  -6.1105116e-02  -1.2311422e-01   3.8697927e-02  -3.6805792e-02  -1.1243038e-01   1.0509378e-01   3.2085782e-01  -9.5609967e-02  -3.3884799e-02
  -1.7414411e-03   9.4559363e-03   1.5439127e-03   5.5057280e-03   5.5105865e-03  -3.8133242e-03   6.8216309e-02  -1.8441422e-02   6.3525174e-02  -3.9250190e-02  -1.0260228e-02   2.9760867e-02  -3.0646516e-02  -8.0072418e-02  -1.0241035e-01   4.6625433e-02  -1.8995512e-02   1.8106408e-02   9.3490818e-02   1.3520726e-02  -4.2414818e-03   4.3200265e-02  -1.3245687e-01   9.3482642e-02  -9.0242360e-02  -1.5476375e-01
  -1.9782863e-02  -6.4889357e-03   1.4040167e-02   6.5075422e-02   2.8107819e-02   7.6814820e-03  -1.2874870e-02  -4.7566796e-04   3.6975133e-02   2.4687531e-02   5.4558669e-02  -1.6628617e-02  -3.6249072e-02   2.8669566e-02   2.7235887e-02  -3.4231021e-02   1.2538984e-01  -6.8719506e-02  -8.3973523e-02  -2.4625122e-02   1.2243260e-01  -1.4123565e-02  -1.0662895e-01  -7.4174522e-02   2.8852785e-01  -8.5874244e-02
   1.5951528e-02   6.1898670e-04  -9.2574538e-03  -4.0320591e-02  -4.1479831e-02   1.1365038e-02  -1.0581295e-02   1.2000226e-02  -4.9408603e-02   2.0058567e-02  -6.6034649e-02   6.9071850e-02  -1.9329358e-03  -3.3801297e-02   1.8193010e-02   7.8530229e-02  -1.1668518e-02   2.2131744e-02   1.6475279e-02   2.3128027e-03  -2.9593160e-02   1.7273124e-03   2.8935959e-02  -3.6056498e-02  -1.0356937e-01  -1.1208288e-01
  -4.7286175e-03  -4.0182172e-03   1.5559140e-03  -9.3194650e-03  -1.5280873e-02  -3.1941176e-02  -1.8434889e-02  -2.2870159e-02  -2.0440001e-02   4.4809957e-02   7.8239085e-03  -1.2797930e-02  -1.8833899e-02  -2.2496739e-02  -4.1814800e-03   4.9310782e-02  -1.0771785e-03  -4.5339839e-02   7.5525985e-02   3.7743379e-02  -9.1264053e-03   1.2040941e-02  -7.9247989e-02  -9.5192302e-03  -5.4108964e-02  -5.8628159e-02
   4.0034787e-03   1.6739376e-03  -2.4851907e-03  -8.5022351e-03  -1.8799787e-02  -7.8537104e-03   1.8747256e-02   1.9926745e-02  -2.3164304e-02   2.5824654e-02   2.2320096e-02  -2.1431902e-02  -3.0525850e-02  -6.3496236e-03   7.7341724e-02   2.4845130e-02   3.3337659e-02   6.9398981e-03   8.9915567e-03   2.5459927e-03  -6.5794249e-03   1.1614403e-01   1.2466781e-01   2.0444518e-01  -1.0956164e-01   6.8488145e-02
   5.1785502e-03  -1.9323317e-03   5.8530702e-03   8.7941525e-03  -1.2256809e-02   5.8894450e-03   7.5006381e-03  -1.0941360e-02  -4.5004376e-02  -1.9174994e-02   3.6531414e-02  -1.3474963e-02   2.3983981e-02  -4.6091473e-02   4.3238241e-03  -1.0668856e-02  -4.6161754e-02   3.0418585e-02   2.7083130e-02  -1.6804967e-03  -3.1333287e-03   8.1750457e-03   5.6732495e-02   6.2395895e-02   5.5834621e-02  -8.3445483e-03
   4.4734910e-04  -6.1007581e-04   6.2285357e-03   6.1155282e-03   5.9012644e-03  -3.8514066e-02   1.7710493e-02  -3.1100657e-02   1.1417766e-02  -2.1404792e-02   3.4374875e-02  -9.3440012e-03   1.5184688e-02  -9.0778303e-02   2.9210439e-02   6.5559277e-04  -5.4043180e-02   6.1752393e-02  -2.5890962e-02   5.8324259e-02  -5.2161031e-02  -3.1438358e-03   1.7220148e-02  -4.4317390e-02   1.1903710e-01   8.6707849e-02
  -4.3755043e-03  -4.9727842e-03   2.2946112e-03   7.2901503e-03   1.7601728e-02  -4.1700057e-02   4.2810313e-02  -3.8412967e-03   4.0224859e-02  -5.0351496e-03   3.7371189e-02   4.5724342e-02   6.3689702e-02  -5.8119632e-02   8.8246201e-02  -8.1464494e-02   7.7036495e-03  -8.5957156e-02  -3.0150397e-01   6.9609163e-02  -1.6844626e-02   3.4119266e-02  -2.1558799e-01  -1.5533377e-01   1.6599114e-01  -5.2841783e-03
   4.0643752e-03  -7.6963018e-03   4.9591701e-03  -1.9926574e-02  -1.1022063e-02  -1.2933129e-03   5.1093198e-02   7.7127535e-03   5.6235042e-02   3.3159517e-02   2.0008737e-02   9.2677422e-02  -2.1651841e-02   8.8894037e-03   3.9589315e-02   1.0348798e-01  -6.2414628e-02   1.7790955e-02  -1.9860601e-01  -1.1394009e-01  -4.1405192e-02  -1.0501142e-02  -3.7873644e-02   1.3139400e-01   8.1233389e-02  -6.2196775e-02
  -1.5937212e-03  -3.0700652e-03   6.0064929e-03   4.5888782e-03  -7.5573014e-03   6.6562034e-03  -9.0808932e-03   8.3897427e-03  -2.7620453e-02   2.9206553e-02  -5.0708860e-02   6.0673165e-03  -7.0178430e-02  -8.0636126e-02  -6.0139955e-02   4.4923378e-02   1.9791833e-01  -7.2455432e-02  -1.3197579e-01   2.9234534e-02  -2.3533139e-02  -1.3841670e-01   1.1849563e-01   3.3200501e-01  -7.8002999e-02  -2.6828699e-02
  -2.6767231e-03   9.7398135e-03   1.2511473e-03   9.9309567e-03   5.7174075e-03   1.2017096e-03   7.1857130e-02  -1.4836751e-02   5.3824023e-02  -4.3059476e-02  -1.3162602e-02   2.5667881e-02  -2.8248688e-02  -9.0429910e-02  -1.1402286e-01   4.1021044e-02   9.0025346e-04   1.4604547e-02   1.1505195e-01   2.8949482e-03  -6.7630878e-04   5.4530241e-02  -1.2498889e-01   9.8719562e-02  -9.3657282e-02  -1.5761588e-01
  -2.0004479e-02  -6.9744243e-03   1.3768892e-02   6.6329463e-02   2.0783201e-02  -1.3727113e-03  -9.3076865e-03  -2.7415219e-03   3.7425697e-02   2.6068675e-02   5.7440674e-02   5.7493787e-03  -4.1074325e-02   2.0941866e-02   2.9874105e-02  -2.5883166e-02   1.2556048e-01  -8.5428385e-02  -1.2018481e-01  -8.6341967e-03   1.2294069e-01  -3.1028762e-04  -1.3762127e-01  -1.1867369e-01   3.5569228e-01  -1.2650408e-01
   1.6814072e-02   4.3865017e-04  -9.4948540e-03  -4.0546179e-02  -3.8260942e-02   1.4192849e-02  -5.0114033e-03   2.1931358e-02  -4.8637058e-02   2.1203258e-02  -7.2629151e-02   6.9817598e-02   3.0126884e-03  -4.4489843e-02   2.9295358e-02   7.6260301e-02   3.1045697e-04   2.4452516e-02   1.6645248e-02   5.1438560e-03  -5.5300475e-02   8.2962213e-03   3.7579194e-02  -4.8935360e-02  -1.2652672e-01  -1.4357457e-01
  -6.1154908e-03  -2.7190544e-03   4.5780616e-03  -9.2643057e-03  -2.2560928e-02  -3.9745904e-02  -2.3706990e-02  -3.2001564e-02  -3.0264499e-02   5.2067593e-02   1.7594514e-03  -3.6798422e-02  -2.2256072e-02  -3.3702420e-02   1.7210654e-02   7.9870180e-02   1.4705129e-02  -4.7215226e-02   7.8730199e-02   3.4758310e-02  -1.5244130e-02   6.2676620e-02  -7.7637326e-02  -4.7963811e-03  -5.2792156e-02  -7.4079031e-02
   2.6993365e-03   1.8254309e-03  -4.7916154e-03  -7.7130812e-03  -1.4820226e-02  -4.3119957e-03   2.2938495e-02   2.6677353e-02  -2.4561479e-02   5.7931436e-03   1.9813989e-02  -3.0514087e-02  -3.5873298e-02  -3.3544972e-03   6.8411543e-02   1.8241692e-02   3.4835773e-02  -2.1873054e-02  -1.4132324e-02  -7.6886797e-03   9.2178010e-03   1.4754402e-01   1.6610210e-01   2.0614261e-01  -1.1304225e-01   5.2728561e-02
   3.4350397e-03  -3.0270404e-03   3.9095077e-03   3.6351312e-03  -1.0231435e-02   2.1687908e-03   3.5499357e-03  -6.6622087e-03  -4.2113521e-02   1.1297800e-02   3.3749153e-02  -1.1550115e-02   2.4995366e-02  -6.2901788e-02   5.8961634e-03  -2.1035455e-02  -7.5194080e-02   4.1913070e-02   2.4405523e-02  -2.6457228e-03   3.0840009e-02   3.2888187e-02   9.4438598e-02   1.2711453e-01   5.7399094e-02  -1.5031729e-02
   1.3090705e-03  -1.0380027e-03   7.8089569e-03   5.4009843e-03   6.7941715e-03  -3.3073578e-02   1.1671920e-02  -2.9211349e-02   1.7855246e-02  -2.5567191e-03   3.2861431e-02  -8.1167351e-03   1.0019277e-02  -8.5015225e-02   3.3051250e-02   9.8598935e-03  -6.2297356e-02   9.1713922e-02  -1.3040788e-02   7.0699245e-02  -7.2495133e-02  -2.3286064e-02   1.5526480e-03  -4.0413742e-02   1.3377951e-01   6.9803435e-02
  -3.3459353e-03  -2.8815868e-03   1.1843130e-03   2.6758449e-03   1.4720829e-02  -4.4389245e-02   4.5942975e-02  -8.8678377e-03   3.3079700e-02  -6.8912937e-03   3.3851040e-02   4.0628590e-02   6.4218323e-02  -6.2632834e-02   8.3049594e-02  -7.7401636e-02   1.0660190e-02  -8.5659954e-02  -2.9411509e-01   5.8550077e-02  -1.6622358e-02   4.0991591e-02  -1.8071655e-01  -1.5618226e-01   1.3604189e-01  -1.3500670e-02
   4.5496410e-03  -6.2600876e-03   3.1337651e-03  -2.1400952e-02  -8.7568028e-03  -6.2047402e-04   5.5532703e-02  -8.8739067e-04   6.1967779e-02   3.5494667e-02   1.7430670e-02   9.2516973e-02  -2.3396845e-02   3.2744044e-03   2.6916393e-02   1.1388428e-01  -6.1771006e-02   1.5551481e-02  -2.1338706e-01  -8.7312135e-02  -2.1433768e-02  -3.2616899e-02  -5.3697114e-02   1.4188203e-01   9.5757512e-02  -6.5220744e-02
  -9.2565070e-04  -2.6362010e-03   5.7578213e-03   3.1180505e-03  -6.8025868e-03   9.1442129e-03  -6.3005591e-03  -4.8464903e-04  -2.6871229e-02   2.9683715e-02  -3.7635155e-02  -7.7143688e-03  -5.8141871e-02  -7.5837983e-02  -6.4341959e-02   5.5223578e-02   1.8634654e-01  -7.8453378e-02  -1.3915082e-01   1.9249774e-02  -7.6293692e-03  -1.5729733e-01   1.3188412e-01   3.3384918e-01  -5.8473570e-02  -1.4544969e-02
  -3.4088024e-03   9.8249841e-03   1.0939793e-03   1.2424228e-02   5.7502290e-03   2.3950744e-03   7.2990139e-02  -1.7122278e-02   4.5693312e-02  -4.8363068e-02  -1.6723190e-02   2.8849642e-02  -2.4480234e-02  -9.2946181e-02  -1.1785562e-01   3.4488271e-02   1.5601026e-02   6.3481701e-03   1.3168493e-01   2.4995508e-03   1.1938532e-02   4.9251037e-02  -1.0693466e-01   1.0410351e-01  -9.9149987e-02  -1.4959900e-01
  -2.0094260e-02  -7.4312980e-03   1.3409460e-02   6.7105673e-02   1.4315977e-02  -1.0705310e-02  -7.8070822e-03  -6.3777586e-03   3.9359528e-02   2.5969978e-02   6.2748646e-02   2.2473663e-02  -4.5488233e-02   1.5987576e-02   2.9133950e-02  -1.8546615e-02   1.1529405e-01  -9.3950548e-02  -1.5224388e-01   8.4376202e-03   1.1834935e-01   1.1599338e-02  -1.6641302e-01  -1.5379562e-01   4.1686592e-01  -1.4255971e-01
   1.7012193e-02  -1.3150352e-05  -9.1999978e-03  -3.9468584e-02  -3.2931219e-02   1.6116462e-02   1.1452426e-03   3.2750157e-02  -4.6778396e-02   1.9090730e-02  -7.4495058e-02   6.2007381e-02   1.1358187e-02  -5.1139884e-02   3.8418235e-02   6.5878153e-02   6.5696279e-03   2.7507989e-02   1.9492653e-02   4.5911640e-03  -8.2587872e-02   1.6745243e-02   5.1732592e-02  -5.7744435e-02  -1.4904253e-01  -1.5091675e-01
  -7.4723253e-03  -1.5306448e-03   7.1714039e-03  -9.5275153e-03  -2.8036400e-02  -4.7174193e-02  -2.7769084e-02  -4.0879665e-02  -3.9801292e-02   5.9608154e-02  -4.3556396e-03  -5.8845411e-02  -2.5641608e-02  -4.6678395e-02   3.5571970e-02   1.0776080e-01   3.0993192e-02  -4.3803012e-02   7.5185055e-02   2.9388248e-02  -2.2864668e-02   1.1300924e-01  -7.0358667e-02   4.7547164e-03  -4.1975255e-02  -9.4981921e-02
