  -3.6413945e-02  -1.4846923e-01
  -6.1942258e-03  -8.1886254e-02
   1.7985777e-02   5.4777283e-02
   2.0974794e-02  -7.4287017e-02
  -5.0214237e-02   3.0052247e-02
   9.8080173e-04  -5.6839235e-03
   6.9443323e-03  -5.0054475e-02
   4.6815264e-02  -2.0581667e-01
   3.3056865e-02  -2.3315524e-01
   2.5526623e-02  -1.2332141e-01
  -2.2118883e-02  -8.7862599e-02
  -3.7329184e-03  -4.6667376e-02
   7.3324060e-03   1.4940897e-02
   9.8915395e-03  -1.6595694e-02
  -2.0434804e-02   6.2686635e-03
  -5.0668792e-03   5.2566626e-03
  -5.8011037e-03  -4.8903804e-03
   3.1560042e-02  -1.4530383e-01
   1.6288362e-02  -1.3294597e-01
   1.7739286e-02  -8.4116867e-02
  -1.0227594e-02  -4.1787061e-02
  -1.4699293e-03  -2.2190194e-02
   9.7635063e-04  -8.8872821e-03
   3.2420407e-03   1.6515136e-02
  -2.9536762e-03  -1.1947698e-02
  -5.5498859e-03   1.0530713e-02
  -1.1931985e-02   2.3043909e-02
   1.9043060e-02  -9.6424194e-02
   4.5294233e-03  -5.7660407e-02
   1.1475333e-02  -5.1259833e-02
  -1.2874330e-03  -9.0522296e-03
   4.6143228e-04  -5.9835465e-03
  -2.0623132e-03  -2.0556537e-02
  -6.7654592e-05   3.0357050e-02
   4.9003032e-03  -2.3621649e-02
  -2.9106687e-03   1.1214148e-02
  -1.3073018e-02   3.6355132e-02
   9.1739665e-03  -5.8352018e-02
  -3.0023309e-03  -5.0371374e-03
   6.6010284e-03  -2.4761589e-02
   4.5658110e-03   1.1993230e-02
   2.0011675e-03   3.9909871e-03
  -2.8333148e-03  -2.3472794e-02
  -1.0742097e-03   3.0705702e-02
   6.0017259e-03  -2.8981743e-02
   7.6829177e-04   8.8965011e-03
  -1.0876764e-02   3.8292874e-02
   1.7667838e-03  -2.9934831e-02
  -7.1952197e-03   2.8054893e-02
   2.9501897e-03  -4.4081644e-03
   7.5444074e-03   2.3291810e-02
   3.1289175e-03   9.3762749e-03
  -2.2863694e-03  -2.0618152e-02
  -6.5750752e-04   2.3004645e-02
   3.0624594e-03  -2.9091722e-02
   3.9634277e-03   5.2411349e-03
  -6.8545345e-03   3.2386168e-02
  -3.4350506e-03  -9.7750449e-03
  -8.9288697e-03   4.5256512e-02
   3.4015151e-04   1.0206770e-02
   8.1173274e-03   2.6919468e-02
   3.8473325e-03   1.1475665e-02
  -1.1744357e-03  -1.4527841e-02
   5.0794815e-04   1.1786553e-02
  -1.6392033e-03  -2.5459533e-02
   5.7823662e-03   1.6584560e-03
  -2.2734291e-03   2.2107200e-02
  -6.7300802e-03   3.6454568e-03
  -8.9990662e-03   5.0380148e-02
  -1.4113998e-03   1.9631701e-02
   6.9059317e-03   2.4949106e-02
   4.1746752e-03   1.1320442e-02
  -1.6058518e-05  -7.2484574e-03
   1.9530392e-03   3.8947650e-04
  -6.4162864e-03  -1.9697267e-02
   5.9299639e-03  -8.7738172e-04
   1.9086693e-03   1.0532713e-02
  -8.4289401e-03   1.1817912e-02
  -8.0725492e-03   4.7105239e-02
  -2.4722697e-03   2.4503675e-02
   4.5813824e-03   1.9336974e-02
   4.1430255e-03   9.7307947e-03
   8.9669389e-04  -3.0398927e-04
   3.3783215e-03  -9.0480269e-03
  -1.0218257e-02  -1.3277231e-02
   4.5952192e-03  -1.8774358e-03
   5.0781774e-03   3.7439787e-05
  -8.8295766e-03   1.6072914e-02
  -6.6651988e-03   3.8726775e-02
  -2.9872867e-03   2.5505066e-02
   1.7759499e-03   1.1828703e-02
   3.7997136e-03   7.3529300e-03
   1.4577945e-03   5.3077632e-03
   4.6026203e-03  -1.5412562e-02
  -1.2578570e-02  -7.3861146e-03
   2.2895480e-03  -1.2913039e-03
   6.9634071e-03  -7.9056715e-03
  -8.2042569e-03   1.7496159e-02
  -5.1403029e-03   2.7978088e-02
  -3.0766858e-03   2.3338048e-02
  -9.8259669e-04   3.8866357e-03
   3.2095204e-03   4.6714235e-03
   1.6886326e-03   9.0802951e-03
   5.5170534e-03  -1.8384280e-02
  -1.3491900e-02  -2.8571175e-03
  -3.3183982e-04   5.9181656e-04
   7.5860598e-03  -1.2748731e-02
  -6.8006361e-03   1.6912656e-02
  -3.7242203e-03   1.6942183e-02
  -2.8401351e-03   1.8714522e-02
  -3.3085183e-03  -3.3561624e-03
   2.4549067e-03   2.0141506e-03
   1.6760855e-03   1.0931030e-02
   6.0596124e-03  -1.8225813e-02
  -1.3255167e-02  -1.5729705e-04
  -2.6360859e-03   3.2620373e-03
   7.1705931e-03  -1.4696919e-02
  -4.8526000e-03   1.4931844e-02
  -2.5347705e-03   7.0516710e-03
  -2.3633097e-03   1.2351923e-02
  -4.9676446e-03  -9.1118826e-03
   1.6315662e-03  -4.3040456e-04
   1.5189935e-03   1.1105488e-02
   6.2120849e-03  -1.5611436e-02
  -1.2306069e-02   5.8645529e-04
  -4.1424855e-03   6.1134385e-03
   6.0324067e-03  -1.4396719e-02
  -2.5918001e-03   1.2022322e-02
  -1.6151655e-03  -8.4048074e-04
  -1.7234434e-03   4.9639166e-03
  -5.8635043e-03  -1.2924501e-02
   8.3816218e-04  -2.5747827e-03
   1.2914010e-03   1.0063729e-02
   6.0069667e-03  -1.1481003e-02
  -1.1086012e-02  -4.6639148e-04
  -4.6013456e-03   8.5645481e-03
   4.4764134e-03  -1.2599007e-02
  -2.5041146e-04   8.5765281e-03
  -9.6527993e-04  -6.3510937e-03
  -9.9147109e-04  -2.7603783e-03
  -6.0079803e-03  -1.4632844e-02
   1.6237639e-04  -4.3767860e-03
   1.0273935e-03   8.3682847e-03
   5.5275459e-03  -6.8893502e-03
  -9.9442067e-03  -2.9427790e-03
  -4.0167725e-03   1.0164801e-02
   2.7354493e-03  -9.9186171e-03
   1.9500580e-03   4.9378792e-03
  -5.6328597e-04  -9.4510171e-03
  -2.3056465e-04  -1.0186949e-02
  -5.4855486e-03  -1.4317806e-02
  -3.3188717e-04  -5.7813352e-03
   7.2623909e-04   6.5863852e-03
   4.8912604e-03  -2.8323785e-03
  -9.0891555e-03  -6.3396663e-03
  -2.6162695e-03   1.0679458e-02
   9.6220645e-04  -6.7580690e-03
   3.8218757e-03   1.3883232e-03
  -3.7469823e-04  -1.0365793e-02
   5.0701535e-04  -1.6768787e-02
  -4.4196403e-03  -1.2243018e-02
  -6.1151583e-04  -6.6843601e-03
   3.7022038e-04   5.2080424e-03
   4.2189575e-03  -6.1749797e-05
  -8.5846200e-03  -1.0108967e-02
  -7.7930208e-04   1.0132998e-02
  -7.3551308e-04  -3.3808714e-03
   5.2371954e-03  -1.8823733e-03
  -3.5164458e-04  -9.4991460e-03
   1.1818985e-03  -2.2068556e-02
  -2.9477630e-03  -8.7988032e-03
  -6.7299212e-04  -6.9363716e-03
  -5.4225098e-05   4.5825022e-03
   3.6031230e-03   1.0664075e-03
  -8.3793931e-03  -1.3727606e-02
   1.0572318e-03   8.7945821e-03
  -2.2460801e-03  -5.2944714e-05
   6.1454680e-03  -4.7949143e-03
  -4.2953090e-04  -7.3719386e-03
   1.7663794e-03  -2.5764715e-02
  -1.2081283e-03  -4.4519269e-03
  -5.3378640e-04  -6.3832557e-03
  -5.3981757e-04   4.8791636e-03
   3.0903041e-03   6.4803918e-04
  -8.3568513e-03  -1.6742874e-02
   2.4966984e-03   7.1056695e-03
  -3.4258816e-03   2.8528779e-03
   6.5736003e-03  -7.3632072e-03
  -5.2880651e-04  -4.5630432e-03
   2.2399862e-03  -2.7641059e-02
   6.6316677e-04   3.0047571e-04
  -2.2057336e-04  -4.9238773e-03
  -1.0506764e-03   6.0806035e-03
   2.6869100e-03  -8.4026159e-04
  -8.3901787e-03  -1.8796127e-02
   3.2644831e-03   5.5671272e-03
  -4.1122252e-03   4.8650050e-03
   6.6077808e-03  -9.6387411e-03
  -5.6605350e-04  -1.6419534e-03
   2.5838285e-03  -2.7567821e-02
   2.5277519e-03   4.9732888e-03
   2.3954596e-04  -2.5585579e-03
  -1.5253600e-03   8.0036817e-03
   2.3859497e-03  -2.7177180e-03
  -8.3901693e-03  -1.9633152e-02
   3.2594336e-03   4.6203637e-03
  -4.1741413e-03   5.5406391e-03
   6.3636769e-03  -1.1637173e-02
  -4.7306889e-04   9.0527069e-04
   2.7766217e-03  -2.5486594e-02
   4.2382231e-03   9.1317459e-03
   8.1961571e-04   5.8837563e-04
  -1.8897150e-03   1.0337584e-02
   2.1991686e-03  -4.3178360e-03
  -8.3351469e-03  -1.9111910e-02
   2.5657928e-03   4.5492269e-03
  -3.5768143e-03   4.6464749e-03
   5.9559731e-03  -1.3280867e-02
  -2.1786347e-04   2.7417965e-03
   2.7947145e-03  -2.1408444e-02
   5.6337852e-03   1.2421864e-02
   1.4843418e-03   4.2752299e-03
  -2.0747380e-03   1.2696782e-02
   2.1741719e-03  -5.1698604e-03
  -8.2763410e-03  -1.7215391e-02
   1.4240658e-03   5.4184305e-03
  -2.4267839e-03   2.2920476e-03
   5.4772717e-03  -1.4385262e-02
   1.8061793e-04   3.7185179e-03
   2.6166307e-03  -1.5426699e-02
   6.5425847e-03   1.4590899e-02
   2.1770765e-03   8.1705482e-03
  -2.0345656e-03   1.4682314e-02
   2.3835255e-03  -5.0785169e-03
  -8.3175180e-03  -1.4073528e-02
   1.6941533e-04   7.0633818e-03
  -9.7228022e-04  -1.0591367e-03
   4.9909630e-03  -1.4695548e-02
   6.5084204e-04   3.8736336e-03
   2.2304277e-03  -7.7382983e-03
   6.7938586e-03   1.5499061e-02
   2.8100170e-03   1.1886895e-02
  -1.7620478e-03   1.5934895e-02
   2.8859292e-03  -4.0951447e-03
  -8.5738087e-03  -9.9918898e-03
  -8.4823461e-04   9.1259157e-03
   4.4674838e-04  -4.7108509e-03
   4.5354555e-03  -1.3956799e-02
   1.0821592e-03   3.3942068e-03
   1.6408471e-03   1.3362759e-03
   6.2408361e-03   1.5123204e-02
   3.2654641e-03   1.5011317e-02
  -1.2984853e-03   1.6179079e-02
   3.6731682e-03  -2.4338922e-03
  -9.1192984e-03  -5.4708092e-03
  -1.3454566e-03   1.1119346e-02
   1.4808543e-03  -7.9333849e-03
   4.1319861e-03  -1.1987586e-02
   1.3496725e-03   2.5522449e-03
   8.7357714e-04   1.1343265e-02
   4.7931546e-03   1.3554358e-02
   3.4127620e-03   1.7135321e-02
  -7.3454244e-04   1.5261979e-02
   4.6264222e-03  -4.0246470e-04
  -9.9371495e-03  -1.1951644e-03
  -1.1709203e-03   1.2509808e-02
   1.8534562e-03  -1.0151670e-02
   3.7880286e-03  -8.7289677e-03
   1.3428828e-03   1.6342587e-03
  -2.4292289e-05   2.1699137e-02
   2.4552119e-03   1.0990718e-02
   3.1398560e-03   1.7896148e-02
  -2.0065364e-04   1.3185334e-02
   5.5062302e-03   1.6154144e-03
  -1.0888069e-02   2.0213137e-03
  -3.4189588e-04   1.2805266e-02
   1.4142823e-03  -1.1044085e-02
   3.4929202e-03  -4.2569600e-03
   9.9043649e-04   8.8177341e-04
  -9.8627905e-04   3.1703816e-02
  -6.3518816e-04   7.7283241e-03
   2.3924335e-03   1.7039015e-02
   1.5321172e-04   1.0123784e-02
   5.9903324e-03   3.1443929e-03
  -1.1711164e-02   3.3464534e-03
   9.5606368e-04   1.1649932e-02
   1.5242675e-04  -1.0525648e-02
   3.2088271e-03   1.2310461e-03
   2.7677744e-04   4.5175760e-04
  -1.9280997e-03   4.0556502e-02
  -4.1751075e-03   4.1527252e-03
   1.2103252e-03   1.4498983e-02
   1.8727091e-04   6.4228963e-03
   5.7552592e-03   3.6222347e-03
  -1.2065119e-02   2.0921529e-03
   2.4067485e-03   8.9169702e-03
  -1.8208397e-03  -8.6566858e-03
   2.8648855e-03   7.4298452e-03
  -7.4882916e-04   3.9440334e-04
  -2.7461094e-03   4.7367732e-02
  -7.6799511e-03   7.3212713e-04
  -2.4840267e-04   1.0487110e-02
  -1.9033248e-04   2.5808202e-03
   4.5810534e-03   2.4827001e-03
  -1.1608292e-02  -2.0861094e-03
   3.6325751e-03   4.7838403e-03
  -4.2948801e-03  -5.5602808e-03
   2.3627000e-03   1.3914540e-02
  -1.9670314e-03   6.3845495e-04
  -3.3116404e-03   5.1166182e-02
  -1.0489422e-02  -1.9865946e-03
  -1.7020606e-03   5.5516885e-03
  -9.8020334e-04  -7.7848707e-04
   2.4530133e-03  -6.4657755e-04
  -1.0106910e-02  -8.9770360e-03
   4.2877697e-03  -2.1344069e-04
  -6.9626123e-03  -1.4203844e-03
   1.5970737e-03   2.0094479e-02
  -3.1823105e-03   9.7596013e-04
  -3.4627404e-03   5.0905188e-02
  -1.1800332e-02  -3.3747798e-03
  -2.7612840e-03   5.7999984e-04
  -2.0473269e-03  -2.9369400e-03
  -3.6128376e-04  -5.6468780e-03
  -7.5545278e-03  -1.7624815e-02
   4.1630804e-03  -5.1574522e-03
  -9.3917999e-03   3.4202296e-03
   4.8886779e-04   2.5146608e-02
  -4.1139714e-03   1.0458562e-03
  -2.9966263e-03   4.5478126e-02
  -1.0727393e-02  -2.7117252e-03
  -2.9656500e-03  -3.2851885e-03
  -3.0817367e-03  -3.1161310e-03
  -3.2722347e-03  -1.1591810e-02
  -4.2816868e-03  -2.6199564e-02
   3.2837748e-03  -8.7802556e-03
  -1.0975149e-02   8.3042468e-03
  -9.7924702e-04   2.7957792e-02
  -4.3865456e-03   3.2446031e-04
  -1.6663946e-03   3.3751063e-02
  -6.3886958e-03   8.3025797e-04
  -1.8373936e-03  -4.8172240e-03
  -3.5713517e-03  -5.0909690e-04
  -5.3679299e-03  -1.6524547e-02
  -1.0339821e-03  -3.1960039e-02
   1.9803072e-03  -9.5602938e-03
  -1.0888355e-02   1.2130852e-02
  -2.7354539e-03   2.7107773e-02
  -3.5260912e-03  -1.8626533e-03
   8.1594276e-04   1.4615399e-02
   1.9923695e-03   8.2032275e-03
   1.0539522e-03  -2.9395848e-03
  -2.7945204e-03   5.6992416e-03
  -5.4484812e-03  -1.7425930e-02
   1.0008318e-03  -3.1333358e-02
   9.1239241e-04  -5.8809599e-03
  -8.0905376e-03   1.3341126e-02
  -4.6082296e-03   2.0911513e-02
  -9.7088059e-04  -6.2934947e-03
   4.7703962e-03  -1.2944687e-02
   1.4981058e-02   2.0499165e-02
   6.0238909e-03   3.0214014e-03
   1.5879269e-04   1.6328001e-02
  -2.0891440e-03  -1.0413532e-02
   2.3194375e-04  -2.0115911e-02
   1.0327279e-03   3.7693635e-03
  -1.3916381e-03   1.0061501e-02
  -6.3348881e-03   7.5172206e-03
   3.8957570e-03  -1.3763303e-02
   1.0536138e-02  -4.9781727e-02
   3.2835994e-02   3.8959008e-02
   1.3212197e-02   1.3113208e-02
   6.3270258e-03   3.2210005e-02
   6.2688488e-03   8.8542062e-03
  -5.2205056e-03   6.2200750e-03
   3.4849953e-03   2.0580892e-02
   1.0406600e-02   3.7584718e-04
  -7.5861065e-03  -1.4965040e-02
   1.1685259e-02  -2.4969791e-02
   1.8457607e-02  -9.6524499e-02
   5.5440102e-02   6.4970780e-02
   2.2542256e-02   2.6603949e-02
   1.6768810e-02   5.4211374e-02
   2.1196959e-02   4.4649309e-02
  -1.7336922e-02   5.2139902e-02
   9.4423044e-03   4.5215444e-02
   2.8305104e-02  -1.7364234e-02
  -8.0014934e-03  -4.8337301e-02
   2.2913737e-02  -4.0392541e-02
   2.8871063e-02  -1.5353694e-01
