  -2.9578905e-02  -1.1050871e-02  -1.1336929e-01   3.2926328e-03   3.2710861e-02  -4.7155603e-02   4.8921710e-01   1.0965254e-01   2.5048437e-01   1.3185162e-01   6.9745265e-02   3.2752939e-01  -6.2564105e-01  -4.8644929e-01  -1.3319196e+00   1.7583376e-01   1.3036435e+00  -1.1904014e+00  -1.6134560e+00   1.1049171e+00   3.5969968e-01  -1.0659833e+00   7.8434422e-01
   4.5231881e-02   7.9826123e-04   1.0369360e-01  -1.1117193e-01  -2.4003474e-01   8.7114037e-02  -4.7534130e-02   2.9334387e-01   2.2785908e-01   3.8002219e-01   8.4923351e-02  -1.8605986e-01   8.5001551e-02  -3.8933951e-01   2.7147789e-01  -7.0509617e-01   6.7190134e-01  -1.1922954e-01  -8.1004547e-01   2.6520033e-01  -3.1181031e-01  -4.9097736e-01   5.7488969e-01
  -2.4687955e-03   4.8496107e-03   6.1270596e-02   1.0992629e-02  -2.3077191e-01  -3.6043610e-01  -8.5247193e-02   2.4366867e-01   1.0037192e-01  -7.5712305e-02   4.7472186e-01  -4.5382480e-01  -4.2031212e-01   4.2464807e-01   8.4527193e-01  -5.9514480e-01   3.6213569e-01   1.0423745e+00  -7.1434665e-01   4.3499837e-01   2.9112771e-01  -2.1866394e+00   5.2757795e-01
   8.3018864e-03  -8.4927293e-02   4.0997163e-02  -3.0891055e-01   6.1204949e-02   8.1913887e-02   2.4894941e-02  -3.1571477e-02   1.0707348e-01  -3.0718874e-01  -5.9159269e-01   1.9395524e-01   1.0781085e-01  -4.9874944e-01   2.1936043e-01  -8.9378209e-01  -3.5952930e-01   2.6163537e-01   1.4562364e+00   1.4096909e+00   1.7306005e+00  -2.1006675e-01  -2.5957245e+00
  -1.3972704e-02   6.8907034e-02   1.7042627e-02   1.2154698e-01   6.5944879e-02  -1.3374644e-01  -1.3065405e-01  -1.2844080e-01   2.2682995e-01   2.5915365e-01   4.1459267e-01  -4.2257886e-02   1.3360480e+00  -3.7743748e-01   5.3083517e-01   4.8876586e-01   4.4999071e-01  -2.7758160e-01   6.3481746e-01   3.0297208e-01  -1.1547692e+00  -9.7937810e-03  -1.9551865e+00
   9.1428943e-03  -5.4877558e-02   3.1339205e-02   6.8110999e-02   9.6565012e-03  -4.9855198e-02  -5.9411915e-02  -1.0762744e-03  -4.6110219e-01  -6.8516177e-02   4.4415890e-02  -2.4562544e-01  -5.1056876e-01   2.6624326e-01   1.1644989e-01  -6.5179557e-01   1.0551473e+00   1.1476678e-02  -4.2884010e-02  -3.1898115e-01   3.2586174e-01  -2.3813210e-01  -3.0431226e-01
  -3.5948925e-03   2.8160653e-03   8.9675155e-02   1.3003850e-01  -2.6730203e-01   2.1062221e-01   3.4499543e-01  -5.0294192e-01  -5.1723106e-01   4.9215237e-01  -2.6251275e-01  -2.5773626e-01   8.0054216e-01  -3.8811744e-01   1.0032896e-01  -3.7760453e-02  -8.8108516e-01  -1.1367214e+00  -6.2929668e-01  -1.0833736e+00   1.2466886e+00   5.1540450e-01   1.4823045e-02
  -4.0069376e-02  -6.9346916e-02   3.8119420e-01   1.0217089e-01  -2.3510267e-01  -1.3359898e-01  -3.5463566e-01   1.4789838e-01   2.4069960e-01  -8.7198612e-01  -4.4388070e-02  -2.3238294e-01  -1.2718474e+00  -2.0414873e+00   4.1760211e-01   4.7021718e-02  -2.3793271e-02   5.1692182e-01  -1.5667831e+00  -2.1485067e-01  -1.2491329e+00   1.5810423e+00  -1.0618425e+00
  -1.9592689e-02  -8.5560695e-02   1.1967551e-01   2.2909439e-01   1.0883259e-01   4.7727560e-01   3.4590094e-01   4.1142551e-03   9.6826531e-02   4.4870574e-01  -6.0906003e-02  -4.2427077e-01  -8.9391692e-01  -5.4494896e-01  -5.3940698e-01   1.7332220e+00   9.6826082e-01  -6.9540216e-01   1.9816116e+00   2.3612012e-02  -7.8171340e-01  -1.2096911e+00   3.9435462e-01
   3.4850080e-02  -4.0034697e-02   9.2383746e-02   2.0295655e-01   3.9374242e-01  -1.1966682e-01  -1.3766135e-01   4.4935315e-01   7.8332715e-01   2.0370614e-01  -8.3763490e-01  -1.2861024e+00   1.7014405e-01   4.0339821e-01  -6.6166701e-01  -1.0289018e+00   5.1910293e-03   2.5970899e-01  -4.9939852e-01  -1.5677041e+00   8.6338707e-01   1.2306162e-01   7.8687703e-01
  -1.4946964e-02  -8.6852780e-03  -6.3063939e-02   9.8030561e-03   2.6977572e-02  -1.0634603e-02   2.7731818e-01   7.4120777e-02   1.0540992e-01   8.6721231e-02   4.3337223e-02   1.9394740e-01  -3.6352243e-01  -2.5558507e-01  -7.2484207e-01   1.3432707e-01   7.6944420e-01  -7.2948242e-01  -9.9170744e-01   4.6818077e-01   2.2110343e-01  -4.9086308e-01   1.1842065e-01
   3.2327228e-02   3.1445312e-03   7.6453287e-02  -8.1612259e-02  -1.8760568e-01   3.9941408e-02  -3.7920694e-02   2.3031062e-01   1.6991905e-01   2.7807707e-01   5.4813010e-02  -1.4686158e-01   1.1215456e-01  -3.3563357e-01   1.9176075e-01  -4.6871546e-01   4.7230970e-01  -6.3453688e-02  -6.7842746e-01   1.6342777e-01  -3.0395035e-01  -2.5698070e-01   2.8802411e-01
  -3.4150299e-04  -2.0790176e-03   3.8531871e-02  -1.1088332e-02  -1.1998086e-01  -1.9474243e-01  -6.6644075e-02   1.4918686e-01   7.4766960e-02  -6.5812894e-02   1.9570534e-01  -2.6459562e-01  -2.1064116e-01   2.4416549e-01   5.0297323e-01  -4.5927179e-01   1.5716643e-01   6.2733849e-01  -2.4862666e-01   3.6857273e-01   3.3331627e-01  -1.1931555e+00   2.5586264e-01
   6.2947708e-04  -2.0948050e-02   6.8658176e-03  -5.9966640e-02  -4.3772309e-03  -1.2581300e-02  -1.0844079e-02   1.5927768e-02  -1.8767970e-02  -5.5962329e-02  -1.4127013e-01   5.0728847e-02  -2.8313195e-02  -6.6350376e-02   1.4546516e-02  -1.6022271e-01  -4.6340962e-02   2.3607911e-01   1.9192269e-01   1.7752613e-01   4.4535539e-01  -1.0374047e-01  -2.8623693e-01
  -3.9659638e-03   1.1891024e-02   4.7745148e-03   5.5389194e-02   1.7009022e-02  -5.2495291e-02  -5.1328066e-03  -1.9856667e-02  -8.8555473e-03   7.4698027e-02   1.4322719e-01  -5.5375018e-02   1.7193122e-01  -4.1385050e-03   8.8633948e-02   1.3856143e-01   2.9168086e-01  -1.7837837e-01  -1.2207371e-01   5.9494381e-02  -2.8001754e-01  -1.0513700e-01  -2.9288261e-01
  -1.5921769e-03   6.4901169e-03  -1.9285332e-03   2.1962993e-02   1.0114816e-02  -1.5315811e-02  -2.8338374e-02  -1.3972834e-02   2.7275385e-03   2.7612992e-02   7.5265982e-02  -4.9570362e-02   1.7453631e-01  -4.2707249e-04   1.2759306e-01  -9.4128976e-03   7.1002776e-02   5.4089147e-03   1.6356871e-01   1.0047493e-01  -1.7637627e-01  -9.0694558e-03  -1.9526429e-01
  -4.1028537e-03   3.0240238e-03   3.8851365e-02   3.8529111e-02  -1.6770848e-01   1.1180093e-01   2.2507794e-01  -3.1518654e-01  -2.8119276e-01   2.8090357e-01  -1.3662564e-01  -1.8215709e-01   5.1719526e-01  -1.0860644e-01   8.2341329e-02  -9.5877463e-02  -6.1673951e-01  -6.5623381e-01  -1.9976868e-01  -4.7036930e-01   8.6370109e-01   2.2463402e-01   9.2222166e-02
  -3.0669091e-02  -4.8982620e-02   2.8030173e-01   5.2363066e-02  -1.6944262e-01  -1.0805130e-01  -2.5167625e-01   1.0689055e-01   2.2720728e-01  -7.0066227e-01  -2.8790134e-02  -2.0870366e-01  -8.4492759e-01  -1.2468030e+00   2.5516501e-01  -1.3917080e-02  -8.4983544e-02   4.0813034e-01  -8.8951202e-01  -3.1086127e-02  -8.5547137e-01   1.0116817e+00  -5.5361453e-01
  -1.3449868e-02  -6.1161461e-02   6.9715934e-02   1.4660823e-01   8.6711450e-02   3.3252986e-01   2.3555343e-01   2.5610670e-02   9.4052491e-02   2.5140617e-01   7.8221548e-02  -2.3982721e-01  -6.4572243e-01  -2.7083484e-01  -3.2827404e-01   1.0834672e+00   5.5613046e-01  -4.2090714e-01   1.4251022e+00   3.0886542e-02  -6.1487388e-01  -9.8631879e-01   2.8549610e-01
   2.2294714e-02  -3.0547619e-02   6.6684938e-02   1.4095107e-01   2.6806475e-01  -1.1040782e-01  -8.1892046e-02   3.2579223e-01   5.6239999e-01   1.5671141e-01  -5.4040906e-01  -8.0633672e-01   1.2602648e-01   2.5107407e-01  -3.8488126e-01  -6.0517362e-01   2.3874469e-02   1.8836973e-01  -3.4021471e-01  -9.5681087e-01   5.4258513e-01  -5.6613349e-03   4.2177172e-01
  -3.9479323e-03  -8.7719073e-03  -2.5112753e-02   9.6763110e-03   1.7550886e-02   1.7169346e-02   1.2121214e-01   4.6817658e-02  -7.6041351e-03   4.4951194e-02   1.1323395e-02   8.8668845e-02  -2.1324591e-01  -8.5425810e-02  -2.8878024e-01   6.6914307e-02   3.6333430e-01  -3.7616710e-01  -5.0690573e-01   1.5116227e-02   1.4236179e-01  -7.8313211e-02  -2.5852182e-01
   2.1805701e-02   3.1061872e-03   5.4949661e-02  -6.7085188e-02  -1.3976717e-01   7.5357929e-03  -2.9954464e-02   1.7661784e-01   1.2698238e-01   1.7803329e-01   1.2786462e-02  -1.0719667e-01   1.3601838e-01  -2.9743230e-01   1.2842932e-01  -2.9862569e-01   2.9367598e-01  -1.3392245e-02  -5.1027059e-01   1.2745775e-01  -2.2600694e-01  -6.1943759e-02  -2.2893835e-02
   1.2293562e-03  -4.4312248e-03   2.0558472e-02  -1.8280460e-02  -4.4999537e-02  -7.7866402e-02  -5.0919000e-02   8.1810633e-02   4.7042370e-02  -4.2675961e-02   1.7771667e-02  -1.2638095e-01  -6.4944729e-02   1.2900467e-01   2.3289986e-01  -3.0167791e-01   3.0414123e-02   3.1477790e-01   1.3330596e-02   2.6141138e-01   2.8054296e-01  -4.5645739e-01   1.1477721e-01
  -5.4956801e-03   1.3803460e-02  -1.3633591e-02   7.3980461e-02  -2.8262170e-02  -6.3457849e-02  -2.3434646e-02   2.8701526e-02  -6.8993523e-02   6.3288404e-02   9.9514419e-02  -2.9691543e-02  -8.7222732e-02   1.4712194e-01  -8.9006762e-02   2.3313200e-01   8.2166679e-02   2.1657459e-01  -3.9490829e-01  -4.2924813e-01  -2.4061945e-01  -6.0058916e-02   8.8809873e-01
  -8.7838470e-05  -1.7379548e-02  -6.5082806e-03   7.0324593e-03  -7.2050637e-03   9.9193154e-04   7.6236287e-02   3.5766578e-02  -8.6657292e-02  -2.6508209e-02  -1.9077139e-02  -3.4895473e-02  -4.1914345e-01   1.3298583e-01  -1.7724548e-01  -5.0512375e-02   1.4984616e-01  -1.3798413e-01  -4.5034429e-01   2.7896980e-02   2.0840488e-01  -1.7182009e-01   5.4222730e-01
  -4.8859297e-03   2.9625600e-02  -1.4568836e-02  -6.0811468e-03   6.3227443e-03   5.2464987e-03  -1.2813040e-02  -1.5484554e-02   1.8342995e-01   5.1119070e-02   6.3546728e-02   4.5440206e-02   3.8929861e-01  -8.9905213e-02   1.0462764e-01   2.5733943e-01  -3.9195477e-01   1.0499829e-02   1.9095275e-01   1.9177376e-01  -3.2713471e-01   1.0707565e-01  -4.6088730e-02
  -3.2613128e-03   2.8081110e-03   2.1994990e-03  -2.2898757e-02  -8.7995886e-02   3.7128135e-02   1.2786572e-01  -1.7255972e-01  -1.1932407e-01   1.2293618e-01  -3.3267144e-02  -1.0670291e-01   3.0234773e-01   8.6915953e-02   4.9030595e-02  -1.3267086e-01  -3.5794960e-01  -2.7740253e-01   4.9841545e-02  -5.3598901e-02   5.1868016e-01   3.0945617e-02   1.2889240e-01
  -2.2239232e-02  -3.1563368e-02   1.9565705e-01   1.5976448e-02  -1.1461070e-01  -8.0251821e-02  -1.6435552e-01   6.1356944e-02   1.8770992e-01  -5.3804226e-01  -1.4673351e-02  -1.6765544e-01  -4.8595045e-01  -6.2118027e-01   1.2550051e-01  -4.7787463e-02  -1.0000999e-01   2.9926022e-01  -3.6651986e-01   8.4245495e-02  -5.3281460e-01   5.5040105e-01  -1.6666150e-01
  -7.9230608e-03  -4.0597489e-02   3.0428465e-02   8.4314655e-02   6.5952030e-02   2.1347003e-01   1.4745950e-01   3.9175857e-02   7.8696361e-02   9.6147557e-02   1.8551526e-01  -8.1133025e-02  -4.2452981e-01  -6.4126419e-02  -1.5437218e-01   5.6340641e-01   2.3993890e-01  -2.1155971e-01   9.0446435e-01   6.4008082e-03  -4.7037192e-01  -7.5836611e-01   1.8866050e-01
   1.3099853e-02  -2.2862812e-02   4.6172558e-02   8.9573266e-02   1.6680482e-01  -9.6247624e-02  -3.5643444e-02   2.1846186e-01   3.7404708e-01   1.1581704e-01  -2.9982017e-01  -4.2429417e-01   8.4142234e-02   1.3532552e-01  -1.7058955e-01  -2.7457991e-01   5.6983220e-02   1.2275769e-01  -2.2067236e-01  -4.8351718e-01   2.7546014e-01  -1.1500428e-01   1.3909818e-01
   3.3946159e-03  -9.2832204e-03   1.0782028e-03   5.2676410e-03   7.8544027e-03   3.5721543e-02   1.3984872e-02   2.5680756e-02  -7.9906885e-02   1.1739497e-02  -1.8890098e-02   1.2141225e-02  -1.2636006e-01   2.0327918e-02   2.1856641e-03  -5.2969961e-03   7.2376611e-02  -1.2242391e-01  -1.3388451e-01  -2.6510628e-01   9.6512483e-02   1.9330068e-01  -4.3551942e-01
   1.3664298e-02   2.1004868e-03   3.8419822e-02  -6.0285763e-02  -9.9554779e-02  -1.3203637e-02  -2.4473591e-02   1.3383398e-01   9.4046407e-02   8.9645021e-02  -2.9297047e-02  -7.3250379e-02   1.5063925e-01  -2.6528079e-01   7.7246412e-02  -1.7801542e-01   1.4730916e-01   3.2107467e-02  -3.4767028e-01   1.1854368e-01  -1.1916499e-01   9.3693191e-02  -2.8822796e-01
   2.3162972e-03  -3.9419228e-03   7.5702886e-03  -1.6975716e-02  -4.2654038e-04  -2.9908211e-03  -3.7526240e-02   3.8010507e-02   2.2384477e-02  -1.4656832e-02  -8.0777180e-02  -3.3044168e-02   2.8162056e-02   6.2416623e-02   3.6681531e-02  -1.4746109e-01  -3.7162225e-02   9.8403596e-02   1.3069345e-01   1.4867392e-01   1.8038368e-01   4.4973805e-02   5.4090845e-02
  -9.5651692e-03   2.6865824e-02  -2.3648632e-02   1.2176391e-01  -2.4315311e-02  -8.2293849e-02  -2.3277776e-02   1.9201449e-02  -7.1215892e-02   8.8769655e-02   1.8837868e-01  -5.8029007e-02  -8.8517433e-02   2.1385593e-01  -1.1848240e-01   3.7255432e-01   8.9227619e-02   1.9673271e-01  -5.1331947e-01  -5.9520232e-01  -4.8287087e-01  -5.8510410e-02   1.2361313e+00
   1.8233619e-04  -2.6799313e-02  -1.5274831e-02  -2.3653615e-02  -1.4026093e-02   3.0545261e-02   1.1758158e-01   5.3669806e-02  -7.2533175e-02  -6.6187193e-02  -9.3011172e-02   2.3979899e-03  -6.0361257e-01   1.2872771e-01  -3.0024338e-01  -1.1626145e-01   4.7616568e-02  -1.3800587e-01  -5.0336435e-01   8.9781238e-02   4.1239078e-01  -1.9888852e-01   7.8158890e-01
  -3.9786985e-03   2.8740678e-02  -1.4271700e-02  -1.9762766e-02   9.8093495e-04   1.5419916e-02  -5.6869213e-03  -1.0787311e-02   1.8879820e-01   3.3983386e-02   3.1080744e-02   7.1393135e-02   3.2372130e-01  -7.7850941e-02   6.5259392e-02   2.7738991e-01  -4.9896719e-01   1.9732527e-02   1.3181415e-01   1.1951005e-01  -2.6853054e-01   1.3884945e-01   9.6756468e-02
  -1.9009709e-03   2.2042246e-03  -2.1088691e-02  -5.7957162e-02  -2.7810771e-02  -1.5370436e-02   5.3104617e-02  -6.8730371e-02  -1.5603869e-02   1.2960850e-02   4.3388415e-02  -4.2590110e-02   1.4317733e-01   2.0204444e-01   8.6960380e-03  -1.4920949e-01  -1.3200080e-01   6.0999315e-03   1.6194977e-01   2.0301405e-01   2.1880107e-01  -8.2615331e-02   1.3978953e-01
  -1.5156536e-02  -1.7184878e-02   1.2704502e-01  -8.7331772e-03  -7.0932425e-02  -5.1293381e-02  -9.1564031e-02   1.5050039e-02   1.3221595e-01  -3.8785315e-01  -4.3353055e-03  -1.1723619e-01  -1.9546150e-01  -1.5461414e-01   2.8127664e-02  -5.7911434e-02  -8.8980666e-02   1.9308501e-01   2.3592094e-02   1.4412106e-01  -2.7217560e-01   1.8980750e-01   1.1333479e-01
  -3.2559638e-03  -2.3731411e-02   1.2723668e-03   4.0056972e-02   4.6639797e-02   1.1921237e-01   8.0078958e-02   4.5816895e-02   5.6570598e-02  -2.0717831e-02   2.6101717e-01   4.7723896e-02  -2.3395078e-01   7.8623929e-02  -1.3572990e-02   1.6218771e-01   4.4051453e-03  -5.9476446e-02   4.4020964e-01  -3.7383821e-02  -3.4533886e-01  -5.3261614e-01   1.0583957e-01
   6.8425466e-03  -1.6745743e-02   3.0227108e-02   4.8694628e-02   8.8901440e-02  -7.8740915e-02   1.2370240e-03   1.2908860e-01   2.2114976e-01   8.1867378e-02  -1.1504708e-01  -1.3643230e-01   4.7098715e-02   5.1429843e-02  -1.5199367e-02  -3.2803379e-02   9.2556878e-02   6.6250668e-02  -1.3366240e-01  -1.3456456e-01   6.4671263e-02  -2.0033092e-01  -6.0901459e-02
   7.4514272e-03  -9.1308649e-03   1.6822826e-02  -1.2033330e-03   1.4394506e-04   4.5326068e-02  -5.2388304e-02   9.4359586e-03  -1.1220393e-01  -1.0745556e-02  -4.2154528e-02  -3.7592972e-02  -7.1501009e-02   6.8223323e-02   1.7506433e-01  -6.8381383e-02  -1.1657491e-01   4.4156824e-02   1.4315744e-01  -3.9957756e-01   6.6153401e-02   3.4918180e-01  -4.8207241e-01
   7.7522581e-03   1.0660204e-03   2.6139302e-02  -5.6058839e-02  -6.8616128e-02  -2.4885834e-02  -2.1608529e-02   1.0224403e-01   6.8159228e-02   1.8980379e-02  -6.4011063e-02  -4.9530242e-02   1.5311398e-01  -2.3457531e-01   3.5852517e-02  -9.4029489e-02   3.8026912e-02   7.3996828e-02  -2.1523846e-01   1.1224432e-01  -1.2364351e-02   2.0981426e-01  -4.6662061e-01
   3.0183277e-03  -2.0190351e-03  -7.0277201e-04  -1.2071096e-02   1.9742356e-02   3.7515634e-02  -2.6409877e-02   1.3758042e-02   3.8415840e-03   1.2175970e-02  -1.2060566e-01   2.2476526e-02   8.0398551e-02   2.9803435e-02  -8.9643382e-02  -1.5216625e-02  -6.1986708e-02  -3.2900412e-02   1.5380860e-01   5.3868551e-02   6.9008046e-02   3.4259900e-01   3.5636623e-02
  -1.1499813e-02   2.5541371e-02  -2.6202006e-02   1.1302133e-01  -5.4491491e-03  -8.0060572e-02  -1.7859406e-02  -1.5546164e-03  -4.9812571e-02   5.7538311e-02   1.7996668e-01  -4.9481782e-02  -5.5794565e-02   1.9645049e-01  -1.0058425e-01   3.4421962e-01   3.0804282e-02   1.7446178e-01  -3.5742386e-01  -4.9471764e-01  -4.3605976e-01  -8.1928592e-02   1.0642447e+00
  -1.1476744e-03  -2.3924759e-02  -2.0479382e-02  -3.7964130e-02  -1.0310195e-02   4.1343133e-02   1.2649762e-01   4.7992764e-02  -2.0654513e-02  -6.5682614e-02  -1.0235299e-01   4.1045776e-02  -5.3875928e-01   5.9299841e-02  -3.1788064e-01  -1.0233184e-01  -4.2640962e-03  -1.5902744e-01  -4.0979460e-01   1.5966571e-01   4.2887870e-01  -1.8628313e-01   6.5260595e-01
  -1.4128371e-03   1.6053622e-02  -7.6659295e-03  -2.3217031e-02  -3.8890662e-03   1.8229884e-02  -2.7707826e-03  -4.1761582e-03   1.0925835e-01   2.3057193e-03  -4.9645208e-03   5.7234108e-02   1.3746607e-01  -2.4701695e-02   2.4344886e-02   1.6695941e-01  -3.9873473e-01   2.6068260e-02   5.4477347e-02   3.3423398e-03  -1.1862847e-01   1.1526995e-01   1.9504929e-01
  -6.9468986e-04   1.2836532e-03  -3.2769547e-02  -7.1653183e-02   1.3664490e-02  -4.8926332e-02  -7.0162845e-04   3.6732426e-03   4.6870182e-02  -5.5300896e-02   9.1149442e-02   1.4677331e-03   2.8017403e-02   2.4711967e-01  -3.0765563e-02  -1.4470353e-01   4.1731190e-02   2.0478681e-01   1.8020758e-01   3.3944641e-01  -3.0251645e-02  -1.3579458e-01   1.3617140e-01
  -9.6569051e-03  -5.8221602e-03   7.3543336e-02  -2.4042465e-02  -3.8251124e-02  -2.2699458e-02  -3.2447655e-02  -2.8221209e-02   7.0593297e-02  -2.5319446e-01   8.1701858e-04  -6.4654669e-02   2.8426476e-02   1.6875515e-01  -3.8166438e-02  -4.7150640e-02  -6.8318565e-02   9.3455588e-02   3.0345242e-01   1.6336785e-01  -6.4560180e-02  -8.0768401e-02   3.0028729e-01
   3.9944099e-04  -1.0353352e-02  -1.8757858e-02   1.1066719e-02   2.8809809e-02   4.7869042e-02   3.1177518e-02   4.7108240e-02   3.3330484e-02  -1.0342222e-01   3.0571476e-01   1.4432414e-01  -7.6359920e-02   1.6431291e-01   9.8363200e-02  -1.3201198e-01  -1.6456726e-01   4.4219521e-02   4.8684825e-02  -8.7975331e-02  -2.3648919e-01  -3.1658800e-01   3.8233215e-02
   3.0345238e-03  -1.1946672e-02   1.8146193e-02   1.7687670e-02   3.2522070e-02  -5.9561694e-02   2.9046258e-02   5.8472810e-02   1.0493156e-01   5.5264356e-02   1.6804064e-02   6.4295588e-02   1.7129015e-02  -5.5013503e-03   8.6994470e-02   1.2852273e-01   1.2151560e-01   2.0949054e-02  -7.1761963e-02   1.0647394e-01  -8.9537826e-02  -2.5894309e-01  -1.8403433e-01
   8.8523091e-03  -8.0012581e-03   2.3956394e-02  -7.8029999e-03  -4.4252402e-03   4.7093449e-02  -8.6276221e-02  -2.5997420e-03  -1.1176914e-01  -2.2832802e-02  -5.5801083e-02  -6.4530634e-02  -3.1800784e-02   7.1210998e-02   2.5651971e-01  -1.1538639e-01  -2.1797865e-01   1.3898091e-01   3.3395856e-01  -4.2464258e-01   4.2342869e-02   4.1572908e-01  -4.4840015e-01
   3.8173015e-03   5.1074471e-04   1.7409609e-02  -5.1430914e-02  -4.7292143e-02  -2.9679457e-02  -2.1036800e-02   8.1065577e-02   4.8110979e-02  -3.1412322e-02  -8.7819596e-02  -3.8363830e-02   1.4363832e-01  -2.0426836e-01   3.3821694e-03  -3.7633512e-02  -3.4830158e-02   1.1282350e-01  -1.2225367e-01   9.7039490e-02   7.7208988e-02   2.8701038e-01  -5.4316205e-01
   3.4410890e-03   2.7687691e-04  -4.8915572e-03  -6.8830070e-03   2.1715046e-02   5.1622896e-02  -1.7765881e-02   4.7328603e-03  -7.5213141e-03   3.3983411e-02  -1.2032723e-01   4.7616603e-02   1.0285848e-01   1.9060647e-02  -1.5456270e-01   8.3251575e-02  -5.7678795e-02  -9.3778494e-02   1.2294666e-01  -1.0417544e-02  -2.9057032e-02   4.7451938e-01   3.3160836e-02
  -1.1587801e-02   1.6279978e-02  -2.4039226e-02   7.4649955e-02   1.7634209e-02  -6.6297625e-02  -1.1844661e-02  -2.4718950e-02  -2.3250484e-02   1.7298377e-03   1.2084557e-01  -2.0663811e-02  -1.1712082e-02   1.4373268e-01  -5.8627082e-02   2.2609191e-01  -4.9408884e-02   1.5101907e-01  -8.7967789e-02  -2.7400833e-01  -2.3831077e-01  -1.1714209e-01   6.4253687e-01
  -2.7056197e-03  -1.5196117e-02  -2.1772116e-02  -3.8434618e-02  -1.8838343e-03   3.9116840e-02   1.1254278e-01   3.0689502e-02   3.1021717e-02  -4.3478046e-02  -7.1501103e-02   6.8987163e-02  -3.5675805e-01  -2.1904820e-02  -2.6726101e-01  -4.9885428e-02  -7.4088947e-03  -1.8406584e-01  -2.6514452e-01   1.8907787e-01   3.4175578e-01  -1.4254978e-01   3.5196554e-01
   1.0941764e-03   8.3295756e-04   2.4689385e-04  -2.0252578e-02  -7.0334585e-03   1.6113251e-02  -2.0759115e-03   1.3059119e-03   1.1000926e-02  -2.5758203e-02  -3.2499610e-02   2.6341183e-02  -5.3217912e-02   2.8699932e-02  -7.4491288e-03   1.8266442e-02  -2.1092269e-01   2.4933613e-02  -4.9687002e-04  -8.5015399e-02   3.5996993e-02   6.3211027e-02   2.2842935e-01
  -6.2749408e-05   1.4257465e-04  -3.5355594e-02  -6.9847582e-02   3.8212258e-02  -6.7486746e-02  -3.6058664e-02   5.1897011e-02   8.3086209e-02  -8.9425172e-02   1.1102915e-01   2.1559582e-02  -5.3102741e-02   2.3835934e-01  -6.3240109e-02  -1.1890910e-01   1.5542641e-01   3.3188607e-01   1.4468574e-01   3.9454096e-01  -2.2509289e-01  -1.4802521e-01   1.2385551e-01
  -5.8011020e-03   2.6621344e-03   3.3630942e-02  -3.2530615e-02  -1.5734744e-02   3.8474343e-03   1.3677090e-02  -6.5154392e-02   1.1206405e-02  -1.3669294e-01   7.9485986e-04  -1.5100889e-02   1.8996533e-01   3.6956676e-01  -7.5824269e-02  -1.8818725e-02  -4.8899321e-02   4.5588528e-03   4.9447836e-01   1.5633624e-01   9.8444768e-02  -2.7354879e-01   4.0679801e-01
   3.0051342e-03  -1.9383127e-04  -3.1031128e-02  -5.7745154e-03   1.2612324e-02  -3.1930969e-03  -1.9742661e-03   4.4738485e-02   1.3426634e-02  -1.5677225e-01   3.2199894e-01   2.0862113e-01   4.7224606e-02   2.0271445e-01   1.8524524e-01  -3.3215888e-01  -2.7820500e-01   1.0871920e-01  -2.5945311e-01  -1.3462206e-01  -1.4059668e-01  -1.1731342e-01  -1.4280348e-02
   1.1719999e-03  -8.2218825e-03   9.1911708e-03  -4.5275579e-03  -4.7082984e-03  -4.0346751e-02   4.8218019e-02   6.3892636e-03   2.4625734e-02   3.5815335e-02   1.0066726e-01   1.8816042e-01  -4.0215855e-03  -4.0168789e-02   1.4322543e-01   2.2048172e-01   1.3831366e-01  -1.2322605e-02  -2.7957306e-02   2.5785349e-01  -1.8935958e-01  -2.8978403e-01  -2.4159094e-01
   8.3436097e-03  -6.1185912e-03   2.4589069e-02  -1.3023432e-02  -5.6529773e-03   4.2773844e-02  -9.5756182e-02  -1.0731180e-02  -8.9279664e-02  -2.6515317e-02  -5.9549301e-02  -7.4090377e-02  -9.6826295e-04   4.4782661e-02   2.7165108e-01  -1.4496588e-01  -2.4820290e-01   1.7876553e-01   4.4570168e-01  -3.7883783e-01   2.2559701e-02   4.1829112e-01  -3.6824621e-01
   1.5525079e-03   5.9122367e-04   1.1560922e-02  -4.5307965e-02  -3.4841399e-02  -2.9391542e-02  -2.2209598e-02   6.8735649e-02   3.3790846e-02  -6.1978677e-02  -1.0017001e-01  -3.9814656e-02   1.2485588e-01  -1.7534050e-01  -2.0151712e-02  -3.0694974e-03  -7.5818150e-02   1.4859224e-01  -6.6471672e-02   7.1276701e-02   1.4241261e-01   3.2693152e-01  -5.2429804e-01
   3.6797800e-03   2.2308004e-03  -5.8517275e-03  -3.2680914e-03   1.1524314e-02   4.7143994e-02  -1.1836247e-02   6.5833539e-03  -1.2188024e-02   4.8887319e-02  -9.5801227e-02   4.9737423e-02   1.0537983e-01   2.0681418e-02  -1.6972461e-01   1.4260283e-01  -3.5298967e-02  -1.0086853e-01   6.8169199e-02  -4.0685676e-02  -1.0010155e-01   4.8192046e-01   3.0993775e-02
  -1.0364208e-02   4.2363074e-03  -1.9505495e-02   2.8208898e-02   3.7243658e-02  -4.8575911e-02  -7.5004944e-03  -4.4058937e-02  -3.0785090e-03  -5.4060359e-02   4.6485999e-02   1.3380848e-02   2.5671215e-02   8.9249044e-02  -1.0831503e-02   8.1698160e-02  -1.2171377e-01   1.2946277e-01   1.7824721e-01  -4.0479059e-02   2.1980661e-04  -1.5494128e-01   1.8090398e-01
  -3.7482150e-03  -5.4388783e-03  -1.9546250e-02  -2.8649332e-02   6.8489863e-03   2.9375367e-02   8.5654155e-02   1.0817683e-02   6.1734719e-02  -1.3648039e-02  -2.2770723e-02   7.9063256e-02  -1.5510586e-01  -8.4316470e-02  -1.8154172e-01   8.4346701e-03   2.7116867e-02  -2.0116213e-01  -1.2982194e-01   1.6370960e-01   2.1639131e-01  -8.1504465e-02   2.7924864e-02
   2.6296906e-03  -1.0994856e-02   6.3199969e-03  -1.3956365e-02  -7.9147592e-03   1.1003633e-02  -2.9398478e-03   3.9860329e-03  -6.5824233e-02  -4.0564621e-02  -4.4768451e-02  -4.8477644e-03  -1.7948188e-01   6.1085073e-02  -2.4015765e-02  -1.0656489e-01  -2.0552525e-02   1.5499550e-02  -1.8055388e-02  -1.1660042e-01   1.4290294e-01   5.1061371e-03   1.9710234e-01
  -1.3316278e-04  -1.1041977e-03  -3.1757205e-02  -5.8608303e-02   4.8784100e-02  -7.5082986e-02  -5.6114870e-02   8.2117082e-02   1.0412863e-01  -9.8136368e-02   1.0748685e-01   1.9628994e-02  -1.0797120e-01   1.9542430e-01  -8.5400526e-02  -7.4285845e-02   2.1324009e-01   4.0144375e-01   8.7804967e-02   4.0142514e-01  -3.6504212e-01  -1.3557975e-01   1.0324210e-01
  -3.4710954e-03   8.5031663e-03   5.3864995e-03  -3.6758645e-02  -1.8469956e-03   2.6805971e-02   4.7462634e-02  -9.3385050e-02  -4.0029826e-02  -4.0488000e-02  -2.9153501e-03   2.8856092e-02   2.9553313e-01   4.7138218e-01  -8.8811068e-02   2.2568729e-02  -3.5703783e-02  -6.9975355e-02   6.1486195e-01   1.3484137e-01   2.2428444e-01  -4.0070778e-01   4.4408615e-01
   4.6391846e-03   7.0675901e-03  -3.7124680e-02  -1.3650501e-02  -1.5950874e-03  -3.7033620e-02  -2.2362842e-02   4.0136867e-02  -5.0652970e-04  -1.8600661e-01   3.1372780e-01   2.4321530e-01   1.3737286e-01   2.0527941e-01   2.5009671e-01  -4.5246587e-01  -3.4447571e-01   1.4276179e-01  -4.8007046e-01  -1.6959482e-01  -5.4827771e-02   5.9749924e-02  -5.3410216e-02
   7.7638076e-04  -5.3535994e-03   2.6578207e-03  -1.9347268e-02  -2.5505135e-02  -2.2541650e-02   5.9333404e-02  -2.8399114e-02  -2.2670398e-02   2.2720442e-02   1.4323422e-01   2.4799086e-01  -1.5283904e-02  -5.6920866e-02   1.6162650e-01   2.5550754e-01   1.4096029e-01  -3.3956428e-02   3.6194755e-03   3.3809239e-01  -2.3926065e-01  -2.9310741e-01  -2.4885752e-01
   6.6623000e-03  -3.9838599e-03   2.0852541e-02  -1.5887575e-02  -4.0752462e-03   3.4488944e-02  -8.8159067e-02  -1.5095999e-02  -5.5872310e-02  -2.4531584e-02  -5.5073267e-02  -7.2299716e-02   2.1081580e-02   3.7227338e-03   2.4300294e-01  -1.5939986e-01  -2.2534965e-01   1.7984052e-01   4.8602548e-01  -2.9690046e-01   8.1516859e-03   3.7933280e-01  -2.6320550e-01
   6.3509333e-04   1.2125969e-03   7.9633285e-03  -3.7957928e-02  -2.9756648e-02  -2.5550038e-02  -2.4523461e-02   6.3230718e-02   2.5474603e-02  -7.5381702e-02  -1.0245377e-01  -5.1986473e-02   1.0084099e-01  -1.4938956e-01  -3.4508381e-02   1.3008664e-02  -9.1707277e-02   1.8075188e-01  -3.8613097e-02   3.9399070e-02   1.8361812e-01   3.3251382e-01  -4.3085035e-01
   3.8075211e-03   3.4473449e-03  -4.5322436e-03  -1.8822179e-03  -5.3144574e-03   3.1268144e-02  -8.7529857e-03   1.5209218e-02  -1.1646650e-02   5.6560652e-02  -5.9741335e-02   3.5759507e-02   9.6153883e-02   2.7701156e-02  -1.4844107e-01   1.6312899e-01  -3.7928563e-03  -7.1187605e-02   1.0012573e-02  -4.0143009e-02  -1.3958394e-01   4.0563936e-01   2.2067765e-02
  -8.4646824e-03  -6.9531025e-03  -1.4453417e-02  -1.1483706e-02   4.9004046e-02  -3.2264205e-02  -5.3211859e-03  -5.6072434e-02   5.6337263e-03  -9.4030903e-02  -1.9622082e-02   4.1560287e-02   4.5027566e-02   5.2072683e-02   3.0219545e-02  -4.3672784e-02  -1.6960642e-01   1.1297654e-01   3.7093002e-01   1.4025849e-01   2.0340794e-01  -1.8948135e-01  -1.8267302e-01
  -4.0527359e-03   2.3162950e-03  -1.4812407e-02  -1.2819292e-02   1.3127327e-02   1.6771884e-02   5.4752293e-02  -5.7357358e-03   6.5797357e-02   1.4589603e-02   2.5990498e-02   6.9625470e-02   6.0757764e-03  -1.1668729e-01  -8.7539197e-02   5.1465948e-02   8.3168610e-02  -2.0444483e-01  -3.2839302e-02   9.5010415e-02   9.7335356e-02  -1.8437675e-02  -2.2665609e-01
   2.9501457e-03  -1.6695271e-02   9.1659357e-03  -6.5513568e-03  -6.6205240e-03   4.4608097e-03  -5.2320446e-03   3.4584460e-03  -1.0451224e-01  -4.0013066e-02  -4.0191154e-02  -2.7014825e-02  -2.1585309e-01   6.7301098e-02  -2.3544728e-02  -1.7590853e-01   1.2180365e-01   3.6093773e-04  -2.3978470e-03  -9.4325514e-02   1.8153855e-01  -4.2703994e-02   1.1858500e-01
  -7.6903624e-04  -2.3345181e-03  -2.4836181e-02  -4.3441795e-02   4.9293969e-02  -7.5260953e-02  -6.4232301e-02   9.8928012e-02   1.1630457e-01  -9.0634040e-02   8.7663776e-02   2.8156693e-03  -1.4219465e-01   1.3814017e-01  -9.7049902e-02  -1.7086358e-02   2.2872096e-01   4.2655803e-01   3.1719057e-02   3.8417162e-01  -4.5222724e-01  -1.0979919e-01   7.1482809e-02
  -2.4005288e-03   1.2011600e-02  -1.3266297e-02  -3.8912967e-02   5.4827091e-03   4.5032004e-02   6.9687619e-02  -1.1169412e-01  -8.0021290e-02   3.3973177e-02  -7.7610467e-03   6.7064237e-02   3.5311712e-01   4.9843768e-01  -8.2572716e-02   7.1053754e-02  -2.8869180e-02  -1.2784143e-01   6.7837482e-01   1.0679581e-01   3.1920705e-01  -4.7328228e-01   4.2278891e-01
   5.4756362e-03   1.1790654e-02  -3.8640961e-02  -1.5509885e-02  -1.3282702e-02  -5.6823876e-02  -3.2985793e-02   3.4263137e-02  -7.8083337e-03  -1.9649485e-01   2.8590874e-01   2.5301371e-01   1.9627826e-01   1.8365993e-01   2.9504744e-01  -5.0818709e-01  -3.6879144e-01   1.5397533e-01  -6.1567152e-01  -1.8892409e-01   2.3036568e-02   2.1137738e-01  -8.2027767e-02
   1.4201719e-03  -3.1649860e-03  -2.0480408e-03  -2.8294773e-02  -3.2775417e-02  -7.2776715e-03   6.3141519e-02  -4.8000856e-02  -4.1856885e-02   1.4706256e-02   1.5243787e-01   2.5814505e-01  -1.6473274e-02  -5.9751013e-02   1.5066970e-01   2.4624510e-01   1.3041873e-01  -4.5381318e-02   2.7178802e-02   3.6454165e-01  -2.4568064e-01  -2.7024708e-01  -2.2299096e-01
   4.4436027e-03  -2.1371732e-03   1.4680912e-02  -1.5998533e-02  -6.8571347e-04   2.4414393e-02  -6.9805856e-02  -1.5852733e-02  -2.0906687e-02  -1.9572934e-02  -4.5286203e-02  -6.4907917e-02   3.2216331e-02  -4.0091932e-02   1.8983308e-01  -1.6258647e-01  -1.6833347e-01   1.5676124e-01   4.6501372e-01  -2.0569915e-01   1.7645632e-03   3.1722837e-01  -1.4735806e-01
   7.5260807e-04   2.1350167e-03   6.0397283e-03  -3.0410289e-02  -3.0119462e-02  -1.9472556e-02  -2.7427377e-02   6.2380823e-02   2.3245308e-02  -7.5606224e-02  -9.7038505e-02  -7.1622919e-02   7.6017935e-02  -1.2758323e-01  -3.9743422e-02   1.2586565e-02  -9.0019066e-02   2.0832442e-01  -2.6647620e-02   8.3119807e-03   2.0583909e-01   3.0801784e-01  -2.9060983e-01
   3.8706344e-03   3.8034646e-03  -1.8603417e-03  -2.5139843e-03  -2.4094474e-02   1.0173348e-02  -8.4413601e-03   2.7024909e-02  -7.8508024e-03   5.7761165e-02  -2.1617938e-02   1.1878157e-02   8.1544504e-02   3.5504513e-02  -1.0423955e-01   1.4957994e-01   2.9578914e-02  -2.0675343e-02  -3.9260960e-02  -1.6199693e-02  -1.4992879e-01   2.8318620e-01   5.6221711e-03
  -6.4880473e-03  -1.5167482e-02  -1.0185283e-02  -3.6520724e-02   5.1682534e-02  -2.0580844e-02  -4.7225681e-03  -5.9770879e-02   2.8433921e-03  -1.1106663e-01  -6.5029769e-02   5.8045752e-02   4.2326368e-02   3.9307363e-02   5.7273943e-02  -1.2408584e-01  -1.8748644e-01   1.0361493e-01   4.6190425e-01   2.4061257e-01   3.2962326e-01  -2.1737952e-01  -3.8142459e-01
  -3.7494574e-03   6.7172816e-03  -8.9371578e-03   4.7874153e-03   1.5849195e-02   4.7009648e-03   2.6744868e-02  -1.6090369e-02   4.8306561e-02   3.6356009e-02   6.2962101e-02   4.4087102e-02   1.0064667e-01  -1.2139989e-01  -4.4629073e-03   6.9528093e-02   1.4393933e-01  -1.9356180e-01   2.0535245e-02   8.6320842e-03   9.1547187e-03   3.3451195e-02  -3.7099051e-01
   2.2745852e-03  -1.6142481e-02   8.8081024e-03   5.5842439e-04  -3.7449665e-03  -2.2264861e-03  -8.7807094e-03   3.1177226e-04  -1.0611470e-01  -2.7424978e-02  -2.1624749e-02  -3.7088877e-02  -1.7043267e-01   5.2900240e-02  -7.8661072e-03  -1.8416686e-01   1.9551889e-01  -1.5964182e-02   3.1235707e-02  -3.9508937e-02   1.5682830e-01  -7.0784364e-02   2.0506692e-02
  -1.6567146e-03  -3.4360255e-03  -1.6983081e-02  -2.8579216e-02   4.4043680e-02  -7.0702090e-02  -6.3581967e-02   1.0533124e-01   1.2150309e-01  -7.5533921e-02   5.9858220e-02  -1.8764414e-02  -1.5973483e-01   8.3222360e-02  -1.0066725e-01   4.3068842e-02   2.2014394e-01   4.1825130e-01  -1.2256143e-02   3.5648193e-01  -4.9148622e-01  -7.6863674e-02   2.6021655e-02
  -2.2336164e-03   1.3545765e-02  -2.4323467e-02  -4.0503021e-02   8.5288104e-03   5.7931596e-02   8.1389104e-02  -1.1996797e-01  -1.0824918e-01   8.6260840e-02  -1.0865186e-02   1.0088186e-01   3.7157084e-01   4.7345638e-01  -6.3605966e-02   1.1966321e-01  -2.5692929e-02  -1.6845226e-01   6.9425952e-01   7.5875429e-02   3.8814539e-01  -5.0079789e-01   3.5421183e-01
   5.7454218e-03   1.4357691e-02  -3.7035092e-02  -1.3796939e-02  -2.1903909e-02  -6.5591513e-02  -3.6630962e-02   2.7588425e-02  -9.5141687e-03  -1.9332294e-01   2.4410109e-01   2.4432270e-01   2.2749265e-01   1.4831132e-01   3.2149041e-01  -5.1498449e-01  -3.5540488e-01   1.4849973e-01  -6.7473463e-01  -1.9245396e-01   9.4457764e-02   3.3664499e-01  -1.0314529e-01
   2.7371350e-03  -1.5272438e-03  -5.3524938e-03  -3.2828350e-02  -2.9522998e-02   4.6994479e-03   6.0577020e-02  -5.5145128e-02  -3.9380702e-02   1.0272245e-02   1.3677528e-01   2.3325666e-01  -8.4349734e-03  -5.2387464e-02   1.1873861e-01   2.0479867e-01   1.0956658e-01  -4.8748202e-02   4.5147060e-02   3.5238843e-01  -2.1662775e-01  -2.2354985e-01  -1.8072021e-01
   2.1697223e-03  -9.8017019e-04   7.6573315e-03  -1.3517757e-02   3.3706184e-03   1.4472850e-02  -4.5911524e-02  -1.3323704e-02   9.2879434e-03  -1.3766746e-02  -3.3481973e-02  -5.6587695e-02   3.1058752e-02  -7.8683184e-02   1.2767020e-01  -1.5846861e-01  -9.5476520e-02   1.2148078e-01   3.9589809e-01  -1.2249096e-01   5.2074749e-03   2.4577259e-01  -3.1108421e-02
   1.6165862e-03   3.0716099e-03   5.2749150e-03  -2.3895114e-02  -3.3941751e-02  -1.2310025e-02  -3.0470056e-02   6.4141836e-02   2.6659327e-02  -6.7077804e-02  -8.6511723e-02  -9.4854983e-02   5.4245639e-02  -1.1009359e-01  -3.6522724e-02  -2.6431868e-03  -7.7928588e-02   2.3012526e-01  -1.9228505e-02  -1.5478483e-02   2.1599520e-01   2.5886272e-01  -1.3179444e-01
   3.8912168e-03   3.3856767e-03   1.3470353e-03  -4.4363263e-03  -4.1144558e-02  -1.1238512e-02  -1.0583936e-02   3.9164402e-02  -2.7580291e-03   5.3892311e-02   1.2179356e-02  -1.6624490e-02   6.6109738e-02   4.1493140e-02  -4.9633737e-02   1.0981540e-01   5.8991967e-02   3.6855887e-02  -7.4055230e-02   2.1841956e-02  -1.3805084e-01   1.4646811e-01  -1.5193226e-02
  -4.8943005e-03  -1.9608448e-02  -7.4401695e-03  -4.5012038e-02   4.6592281e-02  -1.4867192e-02  -4.6867667e-03  -5.6178845e-02  -8.3958579e-03  -1.0544026e-01  -8.6139030e-02   6.2292297e-02   2.0030773e-02   4.9495145e-02   6.7594686e-02  -1.5144546e-01  -1.7774558e-01   1.0166208e-01   4.5572422e-01   2.6240842e-01   3.6736677e-01  -2.3680921e-01  -4.0870368e-01
  -3.1394766e-03   7.7487115e-03  -3.3209699e-03   2.0452511e-02   1.5334570e-02  -4.8173067e-03   6.0372609e-03  -1.9840621e-02   1.9948299e-02   5.0028583e-02   8.2755294e-02   9.5267892e-03   1.2873292e-01  -1.0818286e-01   5.6235024e-02   6.2308326e-02   1.9550384e-01  -1.7216950e-01   3.9340461e-02  -6.7385566e-02  -4.0057040e-02   6.5765975e-02  -4.0535396e-01
   1.0562434e-03  -1.0970623e-02   6.1877082e-03   6.6151087e-03  -2.0718833e-04  -8.0182712e-03  -1.3088998e-02  -4.2466889e-03  -8.2298678e-02  -8.9256758e-03   4.9791391e-03  -3.6625610e-02  -7.2137039e-02   2.8387037e-02   1.8509723e-02  -1.4415229e-01   2.0265950e-01  -2.8760983e-02   6.4787589e-02   2.1142463e-02   8.9949184e-02  -7.6518832e-02  -6.7965057e-02
  -2.4303730e-03  -4.3237436e-03  -9.8265066e-03  -1.6514865e-02   3.6954583e-02  -6.3104064e-02  -5.6845561e-02   1.0314054e-01   1.1861810e-01  -5.9711232e-02   3.1694391e-02  -3.5109176e-02  -1.6372567e-01   4.1790694e-02  -1.0025348e-01   9.5062842e-02   2.0516506e-01   3.8521261e-01  -4.2014470e-02   3.2275691e-01  -4.9010648e-01  -3.9060927e-02  -3.1979392e-02
  -2.5985267e-03   1.3482876e-02  -2.9528167e-02  -4.2201745e-02   9.3721904e-03   6.5482830e-02   8.3932307e-02  -1.1895819e-01  -1.2601486e-01   1.1727601e-01  -9.8734986e-03   1.3190731e-01   3.5980973e-01   4.1592861e-01  -3.8702561e-02   1.6142165e-01  -2.2924207e-02  -1.9285155e-01   6.6821344e-01   4.2309492e-02   4.3468652e-01  -4.9156942e-01   2.5136250e-01
   5.6870467e-03   1.5153988e-02  -3.3490707e-02  -1.0274840e-02  -2.7113024e-02  -6.6057514e-02  -3.5709646e-02   2.0236044e-02  -7.7314651e-03  -1.8086440e-01   1.9370926e-01   2.2362294e-01   2.3543273e-01   1.0746277e-01   3.3046095e-01  -4.8791416e-01  -3.0897710e-01   1.3097596e-01  -6.7029778e-01  -1.8314579e-01   1.6005645e-01   4.3642562e-01  -1.1875600e-01
   4.4201900e-03  -3.5757503e-04  -7.4913704e-03  -3.4193907e-02  -1.8788152e-02   1.3040678e-02   5.2760215e-02  -5.2864003e-02  -2.2529612e-02   7.9845786e-03   1.0458493e-01   1.8697001e-01   6.9517620e-03  -3.8387418e-02   7.3837410e-02   1.4239259e-01   8.2016312e-02  -4.6525588e-02   5.8454100e-02   3.1424358e-01  -1.6119435e-01  -1.5644653e-01  -1.3637665e-01
   1.5840630e-04  -6.7881726e-04   9.4035754e-04  -9.0666038e-03   7.0766127e-03   6.0991313e-03  -2.0609639e-02  -8.0753909e-03   3.1654409e-02  -8.4722102e-03  -2.2520736e-02  -5.0376266e-02   1.8626738e-02  -1.0789013e-01   6.8148075e-02  -1.5011278e-01  -2.2951798e-02   8.3077844e-02   2.9450433e-01  -5.5386128e-02   1.8121316e-02   1.7437203e-01   7.6429999e-02
   2.9668278e-03   3.7653800e-03   5.2188894e-03  -1.9414336e-02  -3.9447024e-02  -5.0634598e-03  -3.3301387e-02   6.6798413e-02   3.4674616e-02  -5.3920510e-02  -7.3195735e-02  -1.1793091e-01   3.8196754e-02  -9.5998779e-02  -2.6210093e-02  -3.0392598e-02  -6.1552431e-02   2.4502094e-01  -7.9286246e-03  -2.7627588e-02   2.2069515e-01   1.9128625e-01   2.1739145e-02
   3.8751269e-03   2.4189950e-03   4.4415754e-03  -6.7324060e-03  -5.3967424e-02  -2.9468517e-02  -1.4639610e-02   4.9601303e-02   2.0145942e-03   4.6630979e-02   3.7977360e-02  -4.5482639e-02   5.2779940e-02   4.4655867e-02   4.8091906e-03   5.3400883e-02   8.0003310e-02   9.0355754e-02  -9.3648688e-02   6.4677261e-02  -1.1294957e-01   2.0330983e-02  -3.5548854e-02
  -3.9507908e-03  -2.0480245e-02  -6.4376686e-03  -3.9457650e-02   3.6677863e-02  -1.4989380e-02  -4.2707631e-03  -4.7646902e-02  -2.3835395e-02  -8.2641066e-02  -8.5440879e-02   5.7878137e-02  -1.4710889e-02   7.6133947e-02   6.1884142e-02  -1.3178341e-01  -1.4774443e-01   1.0543410e-01   3.7776247e-01   2.2593050e-01   3.2764703e-01  -2.4683884e-01  -3.0024330e-01
  -2.5369374e-03   6.2627155e-03   8.9883028e-04   3.1525659e-02   1.2851058e-02  -1.0981157e-02  -5.4527095e-03  -1.8280998e-02  -7.8544869e-03   5.6030907e-02   8.5621111e-02  -2.5344547e-02   1.0689379e-01  -8.8615961e-02   9.0042316e-02   3.5722033e-02   2.2900660e-01  -1.4619517e-01   3.7864243e-02  -1.1209504e-01  -5.3471597e-02   7.6302093e-02  -3.5605815e-01
  -2.2074111e-04  -3.6445937e-03   2.6399973e-03   1.1275670e-02   2.9815484e-03  -1.2166107e-02  -1.7332322e-02  -8.8029215e-03  -4.8363289e-02   9.0558075e-03   3.2333437e-02  -2.9771923e-02   4.2327923e-02   4.3563414e-03   4.9477078e-02  -7.8249507e-02   1.5967701e-01  -3.4629983e-02   8.3994937e-02   6.5714958e-02   8.3477714e-03  -6.3085063e-02  -1.2393178e-01
  -2.7972447e-03  -4.9507738e-03  -4.1441867e-03  -7.9363740e-03   3.0844198e-02  -5.3314235e-02  -4.6079148e-02   9.3606429e-02   1.0558618e-01  -4.7386792e-02   8.5231565e-03  -3.9300011e-02  -1.5719168e-01   1.8222560e-02  -9.9815654e-02   1.2903661e-01   1.9633698e-01   3.3426938e-01  -6.1282038e-02   2.8125522e-01  -4.5736982e-01   2.9803607e-03  -9.5857660e-02
  -3.1767852e-03   1.2194313e-02  -3.0293282e-02  -4.3882034e-02   9.5506286e-03   6.8135855e-02   7.8996177e-02  -1.0993959e-01  -1.3541390e-01   1.2940734e-01  -3.6522268e-03   1.6080013e-01   3.2614011e-01   3.4113649e-01  -1.4043231e-02   1.9065457e-01  -1.8637570e-02  -2.0322832e-01   6.0416343e-01   4.5569528e-03   4.6114481e-01  -4.5341472e-01   1.2915082e-01
   5.4992611e-03   1.4549641e-02  -2.8868785e-02  -5.9876010e-03  -2.8963554e-02  -6.0570794e-02  -3.2163032e-02   1.2207522e-02  -4.8329759e-03  -1.6245221e-01   1.3935965e-01   1.9638842e-01   2.2482599e-01   6.6633726e-02   3.2312441e-01  -4.4023608e-01  -2.3578978e-01   1.0484804e-01  -6.1798609e-01  -1.6574340e-01   2.1959492e-01   5.1251078e-01  -1.2909469e-01
   6.2132541e-03   3.9094294e-04  -8.5320032e-03  -3.3354002e-02  -3.5883674e-03   1.7749335e-02   4.0969466e-02  -4.4166904e-02   1.4019064e-03   6.7355602e-03   6.3406763e-02   1.3089527e-01   2.6949674e-02  -2.1153981e-02   2.3393760e-02   6.9331289e-02   5.1109447e-02  -4.1079158e-02   6.7126406e-02   2.6027629e-01  -8.9013142e-02  -7.3566881e-02  -1.0063073e-01
  -1.4167144e-03  -1.1482870e-03  -4.7354778e-03  -3.5593227e-03   9.7295897e-03   1.2850302e-04   2.9567324e-03  -9.2852453e-04   4.5836353e-02  -4.3124175e-03  -1.4246931e-02  -4.7446435e-02  -1.3300602e-03  -1.2658317e-01   1.9043889e-02  -1.3939210e-01   3.6641830e-02   4.7769704e-02   1.7774102e-01  -5.4491186e-03   3.7669051e-02   1.0877695e-01   1.6657853e-01
   4.5707749e-03   4.0376791e-03   5.4865289e-03  -1.7495717e-02  -4.5254072e-02   1.4186266e-03  -3.5646371e-02   6.9082763e-02   4.5784590e-02  -3.9450696e-02  -5.8918661e-02  -1.3778580e-01   2.9066072e-02  -8.3534412e-02  -1.0756813e-02  -6.7248049e-02  -4.5584998e-02   2.5220302e-01   1.1776556e-02  -2.6591912e-02   2.2475904e-01   1.1189250e-01   1.5316018e-01
   3.8216846e-03   1.1955490e-03   6.9741482e-03  -8.5657457e-03  -6.1260797e-02  -4.2422226e-02  -1.9905480e-02   5.7176719e-02   5.4014331e-03   3.7616789e-02   5.4330362e-02  -7.1500184e-02   4.3113894e-02   4.5127947e-02   5.1123661e-02  -9.7767751e-03   8.9561206e-02   1.3196973e-01  -1.0037438e-01   1.0432596e-01  -8.3729061e-02  -7.8093071e-02  -5.0673762e-02
  -3.7276787e-03  -1.8621923e-02  -6.9791039e-03  -2.4810949e-02   2.5467913e-02  -1.9791849e-02  -2.9293504e-03  -3.7097563e-02  -3.9533589e-02  -5.0816532e-02  -6.8786503e-02   5.0520549e-02  -5.2475541e-02   1.1075473e-01   4.3205136e-02  -8.0198016e-02  -1.0705463e-01   1.1155497e-01   2.6225121e-01   1.5901989e-01   2.3487864e-01  -2.4717397e-01  -1.1399279e-01
  -2.1636729e-03   3.4859025e-03   3.0522357e-03   3.6734826e-02   1.0017842e-02  -1.3874850e-02  -7.8753922e-03  -1.3540953e-02  -2.6499848e-02   5.5786009e-02   7.5735120e-02  -5.2435302e-02   5.8291661e-02  -7.2254679e-02   9.7964059e-02  -1.3238122e-03   2.4127708e-01  -1.2207748e-01   2.8717948e-02  -1.1708515e-01  -3.9994063e-02   6.8870151e-02  -2.6003614e-01
  -1.1850343e-03   3.3777479e-03  -5.6133965e-04   1.4392781e-02   4.9565546e-03  -1.4271018e-02  -2.0562832e-02  -1.2115631e-02  -1.7709108e-02   2.1686418e-02   5.3664489e-02  -2.1206032e-02   1.3951698e-01  -1.1727542e-02   7.8396481e-02  -1.0158214e-02   8.9511180e-02  -3.2570995e-02   8.2318831e-02   8.2975836e-02  -6.2929826e-02  -3.7596083e-02  -1.3613413e-01
  -2.6275543e-03  -5.3074511e-03   1.5314111e-05  -2.0738993e-03   2.6977299e-02  -4.1643272e-02  -3.2750600e-02   7.8018814e-02   8.1415328e-02  -3.9751427e-02  -7.4772498e-03  -2.9406019e-02  -1.4337535e-01   1.0554848e-02  -1.0195566e-01   1.3912165e-01   1.9868931e-01   2.7121767e-01  -7.5470894e-02   2.2837521e-01  -4.0385537e-01   4.7920397e-02  -1.5417419e-01
  -3.7513336e-03   1.0028251e-02  -2.7722087e-02  -4.4845572e-02   9.8580439e-03   6.6632077e-02   6.8475783e-02  -9.4380662e-02  -1.3834781e-01   1.2642053e-01   7.3724943e-03   1.8660478e-01   2.7785726e-01   2.6001641e-01   5.6233062e-03   2.0415999e-01  -1.3158085e-02  -2.0224715e-01   5.0629077e-01  -3.8658785e-02   4.6876759e-01  -3.9439801e-01   3.4726576e-03
   5.3078065e-03   1.2886874e-02  -2.3732755e-02  -1.3701065e-03  -2.8009055e-02  -5.1120130e-02  -2.7445801e-02   3.6030859e-03  -2.6800947e-03  -1.4024732e-01   8.4525162e-02   1.6629715e-01   2.0026189e-01   2.8736585e-02   3.0121580e-01  -3.8235391e-01  -1.4420892e-01   7.2824868e-02  -5.3383671e-01  -1.4511771e-01   2.7204603e-01   5.6666570e-01  -1.3269812e-01
   7.9035119e-03   7.4450323e-04  -8.4337455e-03  -3.0999844e-02   1.3171318e-02   1.9096870e-02   2.6583428e-02  -3.1766152e-02   2.5910437e-02   5.8948472e-03   1.9532463e-02   7.3966459e-02   4.8303400e-02  -3.8283386e-03  -2.5909788e-02  -4.9404906e-03   1.9315565e-02  -3.4315851e-02   7.0980124e-02   1.9869985e-01  -9.6771386e-03   1.9228994e-02  -8.0083685e-02
  -2.4879030e-03  -2.1059037e-03  -9.0024757e-03   2.0040773e-03   1.1007046e-02  -3.1834358e-03   2.2526404e-02   7.1036457e-03   5.3135933e-02  -1.3491198e-03  -9.2560659e-03  -4.7260084e-02  -2.3043570e-02  -1.3556902e-01  -1.5481540e-02  -1.2710478e-01   7.5249438e-02   1.9124025e-02   6.1630336e-02   3.0359586e-02   5.9139157e-02   5.2104534e-02   2.3153501e-01
   6.2224024e-03   3.8078790e-03   5.7575612e-03  -1.8132883e-02  -5.0449005e-02   6.4529028e-03  -3.7270161e-02   7.0207330e-02   5.8264737e-02  -2.5946287e-02  -4.4977927e-02  -1.5235304e-01   2.6589830e-02  -7.0541922e-02   7.5323131e-03  -1.0859382e-01  -3.3203554e-02   2.5141484e-01   4.0591558e-02  -1.3353797e-02   2.3054890e-01   2.7171581e-02   2.5328986e-01
   3.7328919e-03   1.1495095e-05   8.7002985e-03  -9.3719529e-03  -6.2828035e-02  -4.9297778e-02  -2.5605730e-02   6.1537898e-02   6.9728511e-03   2.8227111e-02   6.1470133e-02  -9.2546116e-02   3.7611274e-02   4.3765860e-02   8.4286627e-02  -7.0737283e-02   8.6035349e-02   1.5722710e-01  -9.7935862e-02   1.3489647e-01  -5.8180694e-02  -1.3928761e-01  -5.7032593e-02
  -4.1342893e-03  -1.5161250e-02  -8.5922140e-03  -6.6517111e-03   1.6121907e-02  -2.7553171e-02  -6.4165833e-04  -2.7325034e-02  -5.2762610e-02  -1.8373029e-02  -4.3112990e-02   4.5800671e-02  -8.4129538e-02   1.4528487e-01   1.6120867e-02  -1.5495868e-02  -6.5276702e-02   1.1588189e-01   1.4232255e-01   8.8131281e-02   1.1796395e-01  -2.3829641e-01   8.8616265e-02
  -2.1066836e-03   5.9507016e-04   3.0105495e-03   3.6214073e-02   8.2410375e-03  -1.4083501e-02  -2.7912510e-03  -7.7898562e-03  -3.1978438e-02   5.0984383e-02   5.9044782e-02  -6.6246433e-02   4.6229308e-03  -6.4661043e-02   8.4868098e-02  -3.9610251e-02   2.3403762e-01  -1.0510887e-01   1.9035283e-02  -8.7306417e-02  -9.6631928e-03   5.1670110e-02  -1.5211746e-01
  -1.6492369e-03   8.2583817e-03  -2.5183869e-03   1.5859755e-02   5.2214389e-03  -1.4329187e-02  -2.2004395e-02  -1.3393270e-02   1.4496378e-03   2.6676595e-02   6.4300307e-02  -1.4524501e-02   1.9667432e-01  -1.6768067e-02   9.9193930e-02   4.1287548e-02   1.4976464e-02  -2.4050948e-02   6.1814598e-02   7.3538873e-02  -1.0723702e-01  -8.7974923e-03  -1.0655618e-01
  -1.9848338e-03  -5.4101580e-03   3.0552088e-03   2.6306063e-03   2.5042779e-02  -2.8249201e-02  -1.7913446e-02   5.8085234e-02   4.7581686e-02  -3.5293578e-02  -1.7242852e-02  -8.7462672e-03  -1.2560633e-01   1.2279197e-02  -1.0698681e-01   1.2518659e-01   2.0986654e-01   2.0163709e-01  -8.7987716e-02   1.6270065e-01  -3.4050950e-01   9.2038142e-02  -1.9375450e-01
  -4.2224915e-03   7.3000231e-03  -2.2700407e-02  -4.4182473e-02   1.0350655e-02   6.1799063e-02   5.4325935e-02  -7.3719050e-02  -1.3586196e-01   1.1303769e-01   2.1334095e-02   2.0680254e-01   2.2113473e-01   1.7976552e-01   1.7507232e-02   2.0183278e-01  -8.8534306e-03  -1.9241548e-01   3.8068873e-01  -8.6620825e-02   4.5807881e-01  -3.2323573e-01  -1.1062735e-01
   5.1543194e-03   1.0474135e-02  -1.8430650e-02   3.5275484e-03  -2.5257636e-02  -3.9388390e-02  -2.2573721e-02  -5.2397319e-03  -2.0868412e-03  -1.1535258e-01   3.1484175e-02   1.3504869e-01   1.6593549e-01  -5.3231910e-03   2.6728861e-01  -3.2120356e-01  -4.4260096e-02   3.7335156e-02  -4.3235812e-01  -1.2474423e-01   3.1576155e-01   5.9993111e-01  -1.2728560e-01
   9.3186312e-03   7.2470144e-04  -7.1306760e-03  -2.7627260e-02   2.8835480e-02   1.7521231e-02   1.0999595e-02  -1.7896752e-02   4.5891758e-02   5.3102430e-03  -2.2196774e-02   2.2286249e-02   6.7680177e-02   1.0937643e-02  -6.8334574e-02  -7.1880536e-02  -1.1881709e-02  -2.7457885e-02   7.0183244e-02   1.3633387e-01   6.7845730e-02   1.1501869e-01  -7.7611084e-02
  -3.0526841e-03  -3.1668123e-03  -1.1769781e-02   6.7415127e-03   1.0926080e-02  -4.0417132e-03   3.6625250e-02   1.4939512e-02   5.5385880e-02   6.7782667e-04  -7.0232838e-03  -4.8086404e-02  -4.0095222e-02  -1.3651090e-01  -3.4396189e-02  -1.1332200e-01   8.9604668e-02  -1.4445561e-03  -4.0560619e-02   5.6234601e-02   7.7084702e-02   5.8598413e-03   2.6566577e-01
   7.7438021e-03   3.0900044e-03   5.7802090e-03  -2.0873658e-02  -5.4558805e-02   9.5374251e-03  -3.7949663e-02   6.9822146e-02   7.0437445e-02  -1.4664653e-02  -3.2214638e-02  -1.6058425e-01   2.9326366e-02  -5.4975156e-02   2.6255823e-02  -1.4896938e-01  -2.6142253e-02   2.4301836e-01   7.6208579e-02   9.4299543e-03   2.3804374e-01  -5.6922374e-02   3.1961381e-01
   3.6211866e-03  -8.8114353e-04   9.5636869e-03  -8.9588679e-03  -5.9407096e-02  -5.0375098e-02  -3.0989601e-02   6.3001755e-02   6.9106076e-03   1.9468543e-02   6.0745644e-02  -1.0746988e-01   3.6076407e-02   4.1738868e-02   1.0219305e-01  -1.2232858e-01   6.9271578e-02   1.6481747e-01  -9.0017480e-02   1.5286506e-01  -4.1895568e-02  -1.6059724e-01  -5.3019752e-02
  -4.9796123e-03  -1.1235037e-02  -1.0696508e-02   1.0211793e-02   1.0747767e-02  -3.6396510e-02   2.1346893e-03  -2.0455199e-02  -6.2288956e-02   7.8553691e-03  -1.4840257e-02   4.7230577e-02  -1.0300513e-01   1.7356854e-01  -1.3935889e-02   4.4562064e-02  -3.0511870e-02   1.1483156e-01   4.3297870e-02   3.2516605e-02   3.0045475e-03  -2.2176620e-01   2.5692076e-01
  -2.3301251e-03  -1.5721594e-03   1.1274104e-03   3.1246533e-02   8.3054006e-03  -1.2355102e-02   7.5371784e-03  -2.6526182e-03  -2.4869579e-02   4.3215323e-02   4.1232349e-02  -6.5085964e-02  -3.9030337e-02  -6.7188291e-02   5.7825821e-02  -7.1380781e-02   2.1224843e-01  -9.8234358e-02   9.8738181e-03  -3.7829984e-02   2.9281131e-02   3.4696299e-02  -5.7077453e-02
  -1.6108987e-03   1.0095768e-02  -2.8547963e-03   1.5555304e-02   3.7820862e-03  -1.2713308e-02  -2.1314789e-02  -1.2433048e-02   6.9657598e-03   2.4284309e-02   6.2647510e-02  -1.1349870e-02   2.0492772e-01  -1.1598442e-02   1.0736518e-01   6.5514185e-02  -4.5859750e-02  -1.2265895e-02   3.1263478e-02   4.7104498e-02  -1.1885460e-01   1.5236789e-02  -4.8313131e-02
  -1.0911932e-03  -5.2858838e-03   5.4961453e-03   7.7309309e-03   2.3574344e-02  -1.3474206e-02  -2.4420792e-03   3.5980150e-02   8.3701390e-03  -3.0791278e-02  -2.3848923e-02   1.5524554e-02  -1.0686010e-01   1.5031020e-02  -1.1283770e-01   9.2923081e-02   2.2250395e-01   1.3138690e-01  -9.8072455e-02   8.7521641e-02  -2.7755061e-01   1.2884148e-01  -2.0392853e-01
  -4.5907157e-03   4.2882051e-03  -1.6014537e-02  -4.1159947e-02   1.0554557e-02   5.4378116e-02   3.8386784e-02  -4.9285910e-02  -1.2798733e-01   9.4258910e-02   3.5461952e-02   2.1806336e-01   1.6112538e-01   1.0493323e-01   2.0885693e-02   1.8648531e-01  -8.9873101e-03  -1.7566760e-01   2.3615130e-01  -1.3577026e-01   4.2933595e-01  -2.4913353e-01  -2.0113081e-01
   5.0089653e-03   7.5853141e-03  -1.3199426e-02   8.7692708e-03  -2.1978421e-02  -2.6810403e-02  -1.8208760e-02  -1.3728808e-02  -2.6693907e-03  -8.8152740e-02  -1.8404324e-02   1.0280430e-01   1.2557471e-01  -3.5746671e-02   2.2468811e-01  -2.6030736e-01   5.3538157e-02   8.4165476e-04  -3.2521191e-01  -1.0575310e-01   3.4873916e-01   6.1239164e-01  -1.1112911e-01
   1.0330032e-02   3.6194424e-04  -4.6137226e-03  -2.3639345e-02   4.1176724e-02   1.3531051e-02  -4.4572189e-03  -4.2473862e-03   5.7960731e-02   5.1620397e-03  -5.8352770e-02  -2.0578770e-02   8.2123758e-02   2.1268535e-02  -9.9339958e-02  -1.2412334e-01  -4.1693662e-02  -2.0980349e-02   6.5510786e-02   7.8991195e-02   1.3576209e-01   2.0624620e-01  -9.3162684e-02
  -3.1420815e-03  -3.9516804e-03  -1.3126661e-02   1.0045571e-02   9.7273883e-03  -2.9393539e-03   4.4494100e-02   2.1588438e-02   5.4068909e-02   2.1298778e-03  -6.3162107e-03  -4.7751112e-02  -4.6952220e-02  -1.3111427e-01  -3.9093938e-02  -9.7746843e-02   8.0725334e-02  -1.3972196e-02  -1.1962525e-01   7.5291908e-02   8.6585316e-02  -2.9273263e-02   2.6693529e-01
   8.9902390e-03   1.9749418e-03   5.3803058e-03  -2.4994094e-02  -5.7455412e-02   1.0364312e-02  -3.7461491e-02   6.7919249e-02   8.0879849e-02  -6.0408834e-03  -2.1121912e-02  -1.6222710e-01   3.5109767e-02  -3.5347241e-02   4.3125463e-02  -1.8275220e-01  -2.4867208e-02   2.2785885e-01   1.1445522e-01   3.8470711e-02   2.4546228e-01  -1.3528308e-01   3.5434656e-01
   3.5144538e-03  -1.3051664e-03   9.6625423e-03  -7.5159514e-03  -5.2441899e-02  -4.6735650e-02  -3.5420412e-02   6.2368169e-02   5.8915249e-03   1.1975345e-02   5.4101352e-02  -1.1594602e-01   3.7979512e-02   4.0174390e-02   1.0528985e-01  -1.5977188e-01   4.0620360e-02   1.5597426e-01  -7.9311655e-02   1.5696239e-01  -3.7847756e-02  -1.4497926e-01  -3.9189844e-02
  -6.0372846e-03  -7.7934414e-03  -1.2760873e-02   2.2549216e-02   1.0082984e-02  -4.4615591e-02   4.6328413e-03  -1.7635391e-02  -6.8143916e-02   2.3662659e-02   1.1042190e-02   5.5197599e-02  -1.0621394e-01   1.9205329e-01  -4.1208307e-02   8.6783088e-02  -8.4034612e-03   1.0656065e-01  -2.0438455e-02   1.8174553e-03  -9.1386199e-02  -2.0034827e-01   3.5910630e-01
  -2.7214732e-03  -2.6439733e-03  -1.9216195e-03   2.3793856e-02   1.0205712e-02  -9.3776338e-03   2.0739818e-02   1.0789194e-03  -9.0121686e-03   3.3885800e-02   2.6278950e-02  -5.1242790e-02  -6.6094907e-02  -7.7990349e-02   2.4597293e-02  -9.1236649e-02   1.8222366e-01  -1.0155718e-01  -1.9166748e-03   1.1949276e-02   7.1457519e-02   2.6844303e-02   1.2996345e-02
  -1.2014397e-03   8.9450589e-03  -1.7053352e-03   1.3390200e-02   1.1372697e-03  -1.0060268e-02  -1.8715781e-02  -9.6125945e-03   1.6473750e-03   1.6627755e-02   5.0329839e-02  -1.1240019e-02   1.6861663e-01   4.4649825e-04   1.0073987e-01   6.0868457e-02  -8.2075649e-02  -1.0343094e-03   2.5015843e-03   1.7387716e-02  -1.0208364e-01   2.8993608e-02   1.9146161e-02
  -2.4211334e-04  -4.9596726e-03   7.6930151e-03   1.4095278e-02   2.0684570e-02   1.9630174e-03   1.2760422e-02   1.4083650e-02  -2.9920248e-02  -2.2710188e-02  -3.0952132e-02   3.5009462e-02  -8.9262143e-02   1.1434346e-02  -1.1577765e-01   5.2158927e-02   2.2787443e-01   6.6562282e-02  -1.0074192e-01   1.1071762e-02  -2.2331447e-01   1.5010777e-01  -1.8040881e-01
  -4.9146437e-03   1.2336280e-03  -8.4464358e-03  -3.5528830e-02   9.8039855e-03   4.4927990e-02   2.2236086e-02  -2.2365097e-02  -1.1409403e-01   7.4571400e-02   4.6861440e-02   2.1743528e-01   1.0214646e-01   3.8635806e-02   1.6779474e-02   1.6287674e-01  -1.6115559e-02  -1.5328389e-01   8.3865610e-02  -1.8002200e-01   3.8305178e-01  -1.8102984e-01  -2.6082711e-01
   4.8013948e-03   4.4610565e-03  -8.2532203e-03   1.4296582e-02  -1.9409728e-02  -1.4602945e-02  -1.4750124e-02  -2.1114999e-02  -3.1084201e-03  -5.8789949e-02  -6.4228218e-02   6.9067908e-02   8.2477726e-02  -6.2903006e-02   1.7724524e-01  -2.0051503e-01   1.3970510e-01  -3.4068387e-02  -2.2073517e-01  -8.6818653e-02   3.6897010e-01   6.0347267e-01  -8.4377383e-02
   1.0859890e-02  -2.9627376e-04  -9.9048565e-04  -1.9432886e-02   4.8584492e-02   7.6344944e-03  -1.8620090e-02   8.0087001e-03   6.0464788e-02   5.7232262e-03  -8.6711272e-02  -5.2993647e-02   8.9438508e-02   2.6312754e-02  -1.1587552e-01  -1.5598666e-01  -6.9528639e-02  -1.4718403e-02   5.8230420e-02   3.1550378e-02   1.8791904e-01   2.8539240e-01  -1.2465610e-01
  -2.8031126e-03  -4.1784587e-03  -1.3259678e-02   1.1660637e-02   7.7304952e-03  -4.8218372e-04   4.6029131e-02   2.6307383e-02   4.9882757e-02   3.3183145e-03  -5.7411694e-03  -4.4418275e-02  -4.0238766e-02  -1.2068817e-01  -3.2558485e-02  -7.9956156e-02   5.2826338e-02  -1.9174506e-02  -1.7089864e-01   8.8473887e-02   8.4259160e-02  -5.3000294e-02   2.3779901e-01
   9.8571294e-03   6.0628194e-04   4.4750036e-03  -2.9691131e-02  -5.9224864e-02   8.8218987e-03  -3.5589204e-02   6.4713191e-02   8.8531660e-02   1.7647162e-05  -1.1935357e-02  -1.5747710e-01   4.1556886e-02  -1.1031281e-02   5.6112216e-02  -2.0500654e-01  -2.8827708e-02   2.0699984e-01   1.5044723e-01   7.0750030e-02   2.5015156e-01  -2.0385150e-01   3.6228248e-01
   3.4571443e-03  -1.1722916e-03   9.2050509e-03  -5.5457437e-03  -4.3816445e-02  -3.9949163e-02  -3.8441272e-02   6.0710250e-02   4.9016302e-03   6.0817758e-03   4.3633054e-02  -1.1827554e-01   4.2745025e-02   3.9897189e-02   9.5945223e-02  -1.8083204e-01   2.8786914e-03   1.3360400e-01  -6.7024773e-02   1.4778851e-01  -4.6379539e-02  -9.9465672e-02  -1.8052455e-02
  -7.0982368e-03  -5.4870163e-03  -1.4424103e-02   2.8925664e-02   1.3544731e-02  -5.0894325e-02   6.0090420e-03  -1.8973255e-02  -7.1105525e-02   2.7740772e-02   3.1317600e-02   6.7046602e-02  -9.4880726e-02   1.9978273e-01  -6.0262656e-02   1.0447873e-01  -1.6050500e-03   9.1479444e-02  -4.5438474e-02  -3.4365104e-03  -1.5586531e-01  -1.7770871e-01   3.8405053e-01
  -3.1473481e-03  -2.6906889e-03  -5.3468527e-03   1.5938184e-02   1.3239571e-02  -5.6936719e-03   3.4719154e-02   3.4255057e-03   1.0437669e-02   2.4279500e-02   1.5910851e-02  -3.0118471e-02  -7.7604871e-02  -9.3561172e-02  -7.6582260e-03  -9.6450800e-02   1.5006517e-01  -1.1261269e-01  -2.0602161e-02   4.4683732e-02   1.1381355e-01   3.3403892e-02   5.6932076e-02
  -6.1212913e-04   5.6048402e-03   4.1270025e-04   9.4196920e-03  -1.8689186e-03  -7.0936222e-03  -1.4941966e-02  -5.7443331e-03  -9.0359874e-03   6.6382762e-03   3.1492428e-02  -1.2324058e-02   1.0182282e-01   1.5231717e-02   7.9999495e-02   3.3147996e-02  -9.0430322e-02   6.5058457e-03  -1.3780220e-02  -3.3891826e-03  -6.7829894e-02   3.0648437e-02   7.6097480e-02
   2.9939343e-04  -4.4495294e-03   9.6854189e-03   2.1534690e-02   1.4876429e-02   1.6967071e-02   2.6655308e-02  -5.4638742e-03  -6.0611095e-02  -8.6040466e-03  -4.1164557e-02   4.2975713e-02  -7.3783992e-02  -2.6670416e-03  -1.1174482e-01   1.3904305e-02   2.1952104e-01   1.2863994e-02  -8.8723478e-02  -5.5496297e-02  -1.8320274e-01   1.4802295e-01  -1.2736675e-01
  -5.2597234e-03  -1.6607828e-03  -8.1083712e-04  -2.7661651e-02   7.5983060e-03   3.3821936e-02   7.1030296e-03   5.6753298e-03  -9.3593852e-02   5.7243529e-02   5.3291138e-02   2.0356072e-01   4.7826244e-02  -1.6466369e-02   7.3082082e-03   1.3623470e-01  -3.0630064e-02  -1.2615264e-01  -6.3876113e-02  -2.1214475e-01   3.2049919e-01  -1.2643892e-01  -2.8807881e-01
   4.4592331e-03   1.3097706e-03  -3.8266483e-03   1.9795434e-02  -1.8454704e-02  -3.7528002e-03  -1.2404802e-02  -2.6658213e-02  -1.7204451e-03  -2.7638004e-02  -1.0502952e-01   3.3689919e-02   3.9569542e-02  -8.6610781e-02   1.2877789e-01  -1.4123352e-01   2.0720549e-01  -6.4820100e-02  -1.2428195e-01  -6.4888014e-02   3.7481984e-01   5.7265047e-01  -4.9799475e-02
   1.0887304e-02  -1.1830023e-03   3.4914083e-03  -1.5434578e-02   5.0217859e-02   3.0262948e-04  -3.0544627e-02   1.8116696e-02   5.3251871e-02   7.1093736e-03  -1.0597602e-01  -7.4544019e-02   8.8444901e-02   2.6346171e-02  -1.1665356e-01  -1.6408496e-01  -9.4526001e-02  -8.1158806e-03   4.9689392e-02  -2.2728808e-03   2.2013597e-01   3.4578654e-01  -1.6865909e-01
  -2.0946019e-03  -3.7192238e-03  -1.2394999e-02   1.1668435e-02   5.2078750e-03   2.7477214e-03   4.1714288e-02   2.8714571e-02   4.2780006e-02   4.4345708e-03  -4.2457541e-03  -3.7194178e-02  -1.9454326e-02  -1.0606113e-01  -1.8523864e-02  -5.9519210e-02   1.1957832e-02  -1.7796201e-02  -1.9390536e-01   9.4652575e-02   6.8792372e-02  -6.5355036e-02   1.8510954e-01
   1.0286191e-02  -8.4465774e-04   3.0867207e-03  -3.4240126e-02  -6.0037182e-02   4.9836062e-03  -3.2146908e-02   6.0525533e-02   9.2698158e-02   3.8261147e-03  -4.6903532e-03  -1.4664127e-01   4.6512947e-02   1.7619453e-02   6.3545906e-02  -2.1231258e-01  -3.6767743e-02   1.8144752e-01   1.7952322e-01   1.0408236e-01   2.4946729e-01  -2.5973490e-01   3.4901738e-01
   3.5062100e-03  -4.8314901e-04   8.4605053e-03  -3.7400407e-03  -3.5564104e-02  -3.1768402e-02  -3.9809031e-02   5.9167845e-02   5.0103193e-03   1.9160100e-03   3.1251796e-02  -1.1518753e-01   4.9908328e-02   4.1300592e-02   7.7695188e-02  -1.8567443e-01  -3.9944138e-02   1.0143374e-01  -5.2845353e-02   1.2728201e-01  -6.5545826e-02  -3.3550123e-02   6.5432817e-03
  -8.0014719e-03  -4.6259673e-03  -1.5553814e-02   2.9462369e-02   1.9581440e-02  -5.4418772e-02   5.5794061e-03  -2.3692082e-02  -7.2145905e-02   2.1308214e-02   4.4482414e-02   7.8210734e-02  -7.3400701e-02   1.9791113e-01  -6.6851538e-02   9.7716813e-02  -9.5739617e-03   7.1872816e-02  -3.7005819e-02   1.0598150e-02  -1.8959949e-01  -1.5763481e-01   3.3824386e-01
  -3.4981639e-03  -2.0935287e-03  -8.4401473e-03   9.3818692e-03   1.6313320e-02  -1.7274136e-03   4.7795589e-02   4.9501144e-03   2.8827665e-02   1.5613383e-02   9.9220457e-03  -8.5880491e-03  -7.9478593e-02  -1.1018870e-01  -3.3402154e-02  -8.7045512e-02   1.2073123e-01  -1.2729313e-01  -4.8574980e-02   5.0152061e-02   1.5416604e-01   5.4505589e-02   8.0127737e-02
  -2.3947482e-05   1.2735664e-03   2.7888017e-03   3.9693053e-03  -4.3126720e-03  -4.4234984e-03  -1.1026197e-02  -1.8385139e-03  -1.9474962e-02  -2.9433099e-03   1.1490561e-02  -1.2366943e-02   2.3576536e-02   2.9143549e-02   4.8829379e-02  -7.0276618e-03  -7.4451175e-02   8.8744607e-03  -1.1533324e-02  -8.6942589e-03  -2.8984976e-02   2.2261610e-02   1.0803088e-01
   3.9370286e-04  -3.7691189e-03   1.1213636e-02   2.8841729e-02   5.6728023e-03   3.0241804e-02   3.8096744e-02  -2.1206013e-02  -7.8550871e-02   1.1900294e-02  -5.4883871e-02   3.6618891e-02  -6.0282700e-02  -2.7160332e-02  -9.7851194e-02  -1.2919062e-02   1.9568375e-01  -2.5421185e-02  -5.5613320e-02  -1.0161682e-01  -1.5896192e-01   1.1770632e-01  -5.6867152e-02
  -5.6546268e-03  -4.2301476e-03   6.0771772e-03  -1.8487455e-02   3.8627952e-03   2.1324561e-02  -6.1419112e-03   3.3264950e-02  -6.6714918e-02   4.3890922e-02   5.3698869e-02   1.7749552e-01   1.1355558e-03  -5.7681812e-02  -5.0726130e-03   1.1072983e-01  -4.9981734e-02  -9.5250721e-02  -1.9552698e-01  -2.2575709e-01   2.4408580e-01  -9.0245649e-02  -2.8626633e-01
   3.9413792e-03  -1.6922251e-03  -1.6279822e-04   2.4701756e-02  -1.9457554e-02   5.0299269e-03  -1.1224527e-02  -2.9794940e-02   2.8639577e-03   4.3667256e-03  -1.3946643e-01  -2.3566893e-03  -5.8945222e-04  -1.0581883e-01   8.2554639e-02  -8.1784829e-02   2.5229634e-01  -8.9135154e-02  -3.9132350e-02  -3.6482613e-02   3.6535871e-01   5.2032174e-01  -1.2607837e-02
   1.0448691e-02  -2.2147089e-03   8.4601923e-03  -1.2073238e-02   4.6075665e-02  -8.0333132e-03  -3.9544659e-02   2.5621384e-02   3.7306419e-02   9.1057027e-03  -1.1554323e-01  -8.5420163e-02   7.9082723e-02   2.2661239e-02  -1.0232187e-01  -1.4784223e-01  -1.1531728e-01  -5.5663444e-04   4.0781265e-02  -2.0304059e-02   2.3035973e-01   3.8240414e-01  -2.2070978e-01
  -1.0907911e-03  -2.6150442e-03  -1.0766679e-02   1.0394646e-02   2.3134487e-03   6.2679611e-03   3.2526154e-02   2.8828430e-02   3.2361199e-02   5.5444215e-03  -1.4287978e-03  -2.6392583e-02   1.2965994e-02  -8.7742670e-02  -7.7332358e-04  -3.6084413e-02  -3.5285860e-02  -1.0270034e-02  -1.9138550e-01   9.1660046e-02   4.0935697e-02  -6.6915123e-02   1.1892605e-01
   1.0268012e-02  -2.2016832e-03   1.3504736e-03  -3.8087880e-02  -6.0047993e-02  -9.1471588e-04  -2.7013187e-02   5.5693710e-02   9.2979163e-02   5.6779295e-03   7.4184077e-04  -1.2992980e-01   4.8361360e-02   4.9315384e-02   6.4204343e-02  -2.0339255e-01  -4.7073956e-02   1.5197101e-01   1.9787041e-01   1.3729475e-01   2.4144357e-01  -3.0128936e-01   3.1983927e-01
   3.7212317e-03   6.8425333e-04   7.7121346e-03  -2.8280827e-03  -2.9565486e-02  -2.3866891e-02  -3.9494356e-02   5.8765649e-02   7.1396649e-03  -5.3129551e-04   1.8472887e-02  -1.0767883e-01   5.9126442e-02   4.4362059e-02   5.4525645e-02  -1.7648279e-01  -8.3104314e-02   6.3437866e-02  -3.5298605e-02   9.8159337e-02  -9.1761554e-02   4.2323053e-02   3.0357025e-02
  -8.6435717e-03  -5.1965894e-03  -1.6228814e-02   2.5339774e-02   2.6216613e-02  -5.4907078e-02   3.0127170e-03  -3.0424889e-02  -7.2044055e-02   7.3173439e-03   5.0446542e-02   8.3967732e-02  -4.8056790e-02   1.8898962e-01  -5.8885153e-02   7.2058528e-02  -2.8775647e-02   5.0936447e-02  -5.8883003e-03   3.4320334e-02  -1.9786470e-01  -1.4296747e-01   2.3997147e-01
  -3.7107753e-03  -1.3616951e-03  -1.0709784e-02   5.1268994e-03   1.8359123e-02   2.1289019e-03   5.8672329e-02   6.3569400e-03   4.3170833e-02   8.9967017e-03   7.1021175e-03   6.9316657e-03  -7.9104680e-02  -1.2493487e-01  -4.9371263e-02  -6.5807024e-02   9.7698583e-02  -1.4107229e-01  -8.4493685e-02   2.7754627e-02   1.8961829e-01   8.4879684e-02   8.9752578e-02
   4.3952441e-04  -2.8159628e-03   4.7132393e-03  -2.2850354e-03  -5.5034672e-03  -2.3869682e-03  -7.9958590e-03   1.1580849e-03  -2.5862449e-02  -1.0232995e-02  -4.6428011e-03  -9.8808717e-03  -4.6942766e-02   3.9716175e-02   1.3573543e-02  -4.7164526e-02  -4.2516406e-02   6.5636438e-03   8.7725227e-03   5.4880839e-04   3.8951369e-03   8.9872653e-03   1.0913341e-01
   7.0970155e-05  -2.9354228e-03   1.1873344e-02   3.4209431e-02  -6.1313003e-03   4.0572278e-02   4.5983284e-02  -3.2637547e-02  -8.1644141e-02   3.6827636e-02  -6.9949562e-02   1.7954176e-02  -4.7900061e-02  -5.7999115e-02  -7.3572336e-02  -2.4004598e-02   1.5980513e-01  -4.6441705e-02   9.0093134e-04  -1.2103135e-01  -1.4851928e-01   5.9262324e-02   1.4290718e-02
  -6.0690078e-03  -6.3475654e-03   1.1489195e-02  -9.2508936e-03  -9.6646331e-04   7.7110158e-03  -1.6930171e-02   5.8602947e-02  -3.5052704e-02   3.4431795e-02   4.8360920e-02   1.4283398e-01  -3.5708292e-02  -8.2368369e-02  -1.8225154e-02   8.8381289e-02  -6.8866332e-02  -6.2132149e-02  -3.0211681e-01  -2.1729107e-01   1.5748730e-01  -7.3847546e-02  -2.6203602e-01
   3.2556833e-03  -4.4006615e-03   2.5427848e-03   2.8336326e-02  -2.2129418e-02   1.1369932e-02  -1.1111639e-02  -3.0244465e-02   1.1145444e-02   3.5638494e-02  -1.6574950e-01  -3.6693333e-02  -3.5868948e-02  -1.1873814e-01   4.0889044e-02  -2.2489879e-02   2.7456923e-01  -1.0533023e-01   3.2425704e-02   8.6811305e-04   3.4055402e-01   4.4852825e-01   2.0664990e-02
   9.6291804e-03  -3.2977543e-03   1.3466484e-02  -9.6990759e-03   3.6953334e-02  -1.6960681e-02  -4.5198375e-02   3.0266901e-02   1.4379319e-02   1.1132927e-02  -1.1538187e-01  -8.6038372e-02   6.2374548e-02   1.7232117e-02  -7.5459005e-02  -1.0968906e-01  -1.3010599e-01   8.2989481e-03   3.1518001e-02  -2.2212293e-02   2.1862099e-01   3.9248794e-01  -2.7531891e-01
   1.1396884e-04  -1.0525542e-03  -8.6029950e-03   8.2698840e-03  -9.1644168e-04   9.7080240e-03   1.9802722e-02   2.7020146e-02   1.8408918e-02   6.6045953e-03   2.4224575e-03  -1.3406746e-02   5.2185318e-02  -6.6179570e-02   1.7340129e-02  -9.5553381e-03  -8.2749630e-02   3.2542872e-03  -1.6804250e-01   7.7747956e-02   3.0678619e-03  -5.9127645e-02   5.0509730e-02
   9.8393277e-03  -3.3031605e-03  -4.9317691e-04  -4.0878297e-02  -5.9352679e-02  -8.5036265e-03  -2.0168718e-02   5.0513438e-02   8.9176615e-02   5.7070076e-03   4.6186555e-03  -1.0743655e-01   4.6176922e-02   8.1991021e-02   5.7422907e-02  -1.7938432e-01  -5.8117258e-02   1.1906601e-01   2.0285704e-01   1.7009966e-01   2.2515452e-01  -3.2819370e-01   2.7928924e-01
   4.1503791e-03   2.1948568e-03   7.2143158e-03  -3.4219096e-03  -2.7266130e-02  -1.7633479e-02  -3.7652515e-02   6.0266855e-02   1.1865486e-02  -1.3676841e-03   6.3234794e-03  -9.6891739e-02   7.0092503e-02   4.8750147e-02   3.0269198e-02  -1.5688455e-01  -1.2177530e-01   2.3542445e-02  -1.2381048e-02   6.3437946e-02  -1.2060449e-01   1.1805966e-01   4.9788095e-02
  -8.9753065e-03  -6.9164710e-03  -1.6648483e-02   1.8246023e-02   3.1647446e-02  -5.2593783e-02  -1.5554758e-03  -3.7547806e-02  -7.1245694e-02  -1.0508201e-02   5.0117259e-02   8.1213351e-02  -2.5390303e-02   1.7623269e-01  -3.7198847e-02   3.6257472e-02  -5.3494854e-02   3.1849325e-02   3.5223607e-02   5.7798842e-02  -1.8911472e-01  -1.3457441e-01   1.1304484e-01
  -3.7689199e-03  -9.5041881e-04  -1.1931587e-02   3.4003558e-03   1.8724050e-02   5.4345665e-03   6.6320414e-02   8.1047931e-03   5.2436350e-02   5.2868701e-03   6.3332230e-03   1.2164627e-02  -8.2209709e-02  -1.3604869e-01  -5.4749917e-02  -3.8119334e-02   8.2945071e-02  -1.5015060e-01  -1.2306632e-01  -1.4019631e-02   2.1561614e-01   1.1502452e-01   9.1207545e-02
   7.2864015e-04  -5.6968281e-03   5.6351234e-03  -8.3308556e-03  -5.2403253e-03  -9.8429772e-04  -6.5811146e-03   2.5771969e-03  -2.7094920e-02  -1.4408135e-02  -1.3510274e-02  -4.8930686e-03  -9.4297557e-02   4.5596954e-02  -1.7737284e-02  -7.5637805e-02  -5.3208377e-03   1.5687511e-03   4.0324403e-02   1.6940600e-02   2.5373906e-02  -2.5786510e-03   8.2994541e-02
  -4.8118415e-04  -1.9774668e-03   1.1336565e-02   3.5878880e-02  -1.8660471e-02   4.7113665e-02   4.9478175e-02  -4.0189156e-02  -7.1492532e-02   6.2358777e-02  -8.2226866e-02  -6.9313648e-03  -3.5698148e-02  -8.8714559e-02  -4.1221479e-02  -2.0636899e-02   1.1907962e-01  -5.1367332e-02   7.6933473e-02  -1.1438901e-01  -1.4650166e-01  -2.1362289e-02   6.9372622e-02
  -6.4183244e-03  -7.9232878e-03   1.4890534e-02  -1.1765862e-03  -6.0526436e-03  -6.6192818e-03  -2.4900115e-02   7.9760422e-02  -1.6812630e-03   2.7439736e-02   3.8598725e-02   1.0507111e-01  -6.1410284e-02  -8.8472090e-02  -3.0696397e-02   6.8728897e-02  -8.0327485e-02  -2.9209105e-02  -3.7850419e-01  -1.8728249e-01   6.5480446e-02  -7.4950307e-02  -2.2288219e-01
   2.4562317e-03  -6.7025703e-03   4.2144115e-03   3.0116856e-02  -2.5645436e-02   1.5266016e-02  -1.1809359e-02  -2.8017662e-02   2.2505235e-02   6.4122950e-02  -1.8188022e-01  -6.5840426e-02  -6.4688991e-02  -1.2333861e-01   4.9891268e-03   3.4826351e-02   2.7621077e-01  -1.1249200e-01   8.8254824e-02   4.7532111e-02   3.0127051e-01   3.6128060e-01   4.3920048e-02
   8.5446967e-03  -4.3364268e-03   1.8044295e-02  -8.4823334e-03   2.4284291e-02  -2.6056638e-02  -4.7331401e-02   3.1940094e-02  -1.3291126e-02   1.2363526e-02  -1.0604755e-01  -7.6947659e-02   4.0285935e-02   1.2219963e-02  -4.0335486e-02  -5.4802430e-02  -1.3704106e-01   1.8268596e-02   2.0903432e-02  -9.5289904e-03   1.8679188e-01   3.7586372e-01  -3.2584861e-01
   1.4047271e-03   6.8715575e-04  -6.1198007e-03   5.6902346e-03  -4.4968903e-03   1.2773513e-02   5.0838374e-03   2.3892838e-02   1.3387368e-03   7.4640653e-03   6.5550507e-03  -2.5103796e-04   9.1927138e-02  -4.1978948e-02   3.3149573e-02   1.9594507e-02  -1.2531743e-01   2.2573588e-02  -1.2938231e-01   5.2913808e-02  -4.1457412e-02  -4.4540690e-02  -9.9441977e-03
   9.0750903e-03  -4.0179272e-03  -2.1259345e-03  -4.2428584e-02  -5.7998640e-02  -1.7307658e-02  -1.1731215e-02   4.5212446e-02   8.1230242e-02   3.8701676e-03   7.2780145e-03  -7.9296774e-02   3.9739136e-02   1.1303004e-01   4.3223292e-02  -1.4368552e-01  -6.8516592e-02   8.3026825e-02   1.9314204e-01   2.0278955e-01   2.0077992e-01  -3.4150731e-01   2.3117458e-01
   4.8156968e-03   3.8816843e-03   7.1551150e-03  -5.8799814e-03  -2.9455776e-02  -1.4021280e-02  -3.4575165e-02   6.4064023e-02   1.9281905e-02  -7.6063614e-04  -4.6546173e-03  -8.4007675e-02   8.2426637e-02   5.3933535e-02   8.1175213e-03  -1.3123367e-01  -1.5169478e-01  -1.4597913e-02   1.7655293e-02   2.6130322e-02  -1.4758392e-01   1.8494568e-01   6.2646064e-02
  -8.9945429e-03  -9.3103523e-03  -1.6998898e-02   9.9291637e-03   3.4736878e-02  -4.8183301e-02  -7.5088557e-03  -4.3467528e-02  -6.9931195e-02  -2.8535276e-02   4.4939648e-02   6.9682053e-02  -1.0645505e-02   1.6285533e-01  -5.8107863e-03  -3.4360545e-04  -7.7243389e-02   1.7248210e-02   7.4704251e-02   7.3166587e-02  -1.7239995e-01  -1.3069354e-01  -1.8320872e-02
  -3.6883508e-03  -1.1211873e-03  -1.2124152e-02   3.8196650e-03   1.7389624e-02   7.6855389e-03   6.9890227e-02   1.0160963e-02   5.7089456e-02   4.9238231e-03   7.4029940e-03   5.9624245e-03  -9.0689558e-02  -1.4296265e-01  -5.0820200e-02  -1.1318646e-02   7.7008928e-02  -1.5231255e-01  -1.5643376e-01  -6.0726535e-02   2.2615699e-01   1.3356802e-01   8.6679519e-02
   8.5607379e-04  -6.8497209e-03   5.2671145e-03  -1.2951572e-02  -3.9008241e-03   5.5508295e-05  -7.0274465e-03   2.1478403e-03  -2.4570055e-02  -1.5518299e-02  -1.4083935e-02   9.0354895e-04  -1.0930839e-01   4.6149378e-02  -3.6959802e-02  -8.4011528e-02   2.6808144e-02  -3.6086909e-03   7.2098749e-02   2.9825212e-02   3.5690632e-02  -6.5685871e-03   4.0623000e-02
  -9.8331318e-04  -9.4204834e-04   9.5482113e-03   3.2790684e-02  -2.9515021e-02   4.9591041e-02   4.8220769e-02  -4.4930523e-02  -5.2929103e-02   8.3934852e-02  -8.6917565e-02  -2.9984747e-02  -2.3293714e-02  -1.1256377e-01  -5.5242927e-03  -8.8264609e-03   8.1648492e-02  -4.4231907e-02   1.6222796e-01  -8.9759668e-02  -1.4538970e-01  -1.1306580e-01   9.6584383e-02
  -6.5921878e-03  -8.9024641e-03   1.6026439e-02   4.8524886e-03  -1.0416912e-02  -2.1077346e-02  -2.9802679e-02   9.4903089e-02   2.9244867e-02   2.0787744e-02   2.6185573e-02   7.0381245e-02  -7.5736027e-02  -7.5272934e-02  -4.1724472e-02   4.9355200e-02  -7.7441568e-02   3.1635906e-04  -4.2368529e-01  -1.4055981e-01  -2.6501567e-02  -8.8133217e-02  -1.7482873e-01
   1.6224607e-03  -8.5143112e-03   4.9514216e-03   2.9768879e-02  -2.8881506e-02   1.7084765e-02  -1.2899212e-02  -2.3331541e-02   3.5336541e-02   8.7682765e-02  -1.8611878e-01  -8.6005279e-02  -8.6131661e-02  -1.1802216e-01  -2.4893273e-02   8.7021144e-02   2.6074188e-01  -1.1044286e-01   1.2606894e-01   1.0137546e-01   2.4908674e-01   2.6435378e-01   5.3307829e-02
   7.3177620e-03  -5.2406033e-03   2.1768466e-02  -8.3336999e-03   9.8937514e-03  -3.4869073e-02  -4.5987709e-02   3.0660775e-02  -4.3128131e-02   1.1947227e-02  -8.8786364e-02  -5.8967827e-02   1.5527595e-02   9.4389335e-03  -2.4284945e-03   9.6280105e-03  -1.3475499e-01   2.8571123e-02   7.2041967e-03   1.4726400e-02   1.3817705e-01   3.3489439e-01  -3.6453294e-01
   2.6519215e-03   2.2932976e-03  -3.5122795e-03   2.9210004e-03  -8.3944497e-03   1.5190158e-02  -1.0055024e-02   2.0120866e-02  -1.7598420e-02   7.8337351e-03   1.0133455e-02   1.1064016e-02   1.2564972e-01  -1.6029527e-02   4.4782833e-02   4.9933673e-02  -1.5919462e-01   4.6955535e-02  -8.0934096e-02   1.9628411e-02  -8.8929950e-02  -2.6767631e-02  -5.5204867e-02
   8.0769324e-03  -4.2584677e-03  -3.2019838e-03  -4.2684781e-02  -5.6041496e-02  -2.6766339e-02  -1.9819437e-03   3.9945333e-02   6.9206259e-02   2.5776992e-05   9.0792615e-03  -4.5950028e-02   2.9433285e-02   1.3952502e-01   2.2429067e-02  -1.0139745e-01  -7.7255283e-02   4.4058734e-02   1.6864588e-01   2.3586808e-01   1.6946000e-01  -3.4367057e-01   1.7874263e-01
   5.7011379e-03   5.5706099e-03   7.6265189e-03  -1.0207463e-02  -3.6139633e-02  -1.3448459e-02  -3.0635700e-02   7.0107256e-02   2.8948980e-02   1.1186785e-03  -1.4331743e-02  -7.0147060e-02   9.5585631e-02   5.9233506e-02  -9.7562782e-03  -1.0384978e-01  -1.6965369e-01  -4.7900539e-02   5.5522787e-02  -1.0868655e-02  -1.6875190e-01   2.3636273e-01   6.8431456e-02
  -8.7398276e-03  -1.1794462e-02  -1.7326903e-02   1.9357168e-03   3.5248958e-02  -4.2753310e-02  -1.3844965e-02  -4.6820264e-02  -6.8183458e-02  -4.3746278e-02   3.6432848e-02   5.2261519e-02  -6.5206375e-03   1.5146776e-01   2.8457902e-02  -2.9942479e-02  -9.4375833e-02   8.9465882e-03   1.0409605e-01   7.6059995e-02  -1.5555130e-01  -1.2688166e-01  -1.3295283e-01
  -3.4962539e-03  -1.8708666e-03  -1.1478354e-02   5.7207758e-03   1.4932143e-02   8.3973637e-03   6.8724254e-02   1.1967044e-02   5.8226865e-02   7.8566627e-03   1.1212100e-02  -9.6298069e-03  -1.0178546e-01  -1.4612062e-01  -4.0197179e-02   6.6591222e-03   7.9064883e-02  -1.4747100e-01  -1.7662557e-01  -9.6603991e-02   2.1524845e-01   1.3030741e-01   7.5663193e-02
   8.6486384e-04  -6.2492176e-03   3.6396817e-03  -1.4971693e-02  -2.2795630e-03   1.0687268e-03  -9.0662497e-03   8.4155451e-06  -2.1153556e-02  -1.4143304e-02  -7.6613188e-03   4.6440258e-03  -9.0135323e-02   4.1141940e-02  -3.7667557e-02  -6.8889024e-02   4.6078194e-02  -6.7047551e-03   9.2360973e-02   2.9581177e-02   3.9009138e-02  -3.8702161e-05  -3.1827843e-03
  -1.1602494e-03   1.0715636e-04   6.8207661e-03   2.5016901e-02  -3.6499351e-02   4.8347625e-02   4.2452856e-02  -4.8096431e-02  -3.2581026e-02   9.7596449e-02  -8.0155669e-02  -4.3919891e-02  -1.1219314e-02  -1.2462509e-01   2.7597486e-02   3.0865003e-03   5.3462489e-02  -3.1021111e-02   2.4209574e-01  -6.0774524e-02  -1.3706608e-01  -2.0168907e-01   9.2369434e-02
  -6.4949774e-03  -9.2608820e-03   1.4954496e-02   8.5012030e-03  -1.3252108e-02  -3.4892622e-02  -3.1444024e-02   1.0257826e-01   5.3302386e-02   1.2396252e-02   1.2658441e-02   4.4180941e-02  -7.9508635e-02  -4.4027857e-02  -5.0936679e-02   2.7063851e-02  -5.5079501e-02   2.2875073e-02  -4.4010740e-01  -8.5250601e-02  -1.1298263e-01  -1.0607242e-01  -1.2095285e-01
   8.2840747e-04  -9.7780282e-03   5.0387272e-03   2.7456920e-02  -3.0719360e-02   1.7494400e-02  -1.3827334e-02  -1.6469934e-02   4.7514726e-02   1.0456222e-01  -1.7752739e-01  -9.4087137e-02  -9.9959794e-02  -1.0224380e-01  -4.9069599e-02   1.3040490e-01   2.3164375e-01  -9.9515733e-02   1.4376654e-01   1.5818876e-01   1.8600057e-01   1.6459475e-01   4.8477047e-02
   6.0528116e-03  -5.9317041e-03   2.4294385e-02  -8.8839987e-03  -4.2870448e-03  -4.2918183e-02  -4.1399677e-02   2.6601616e-02  -7.2262492e-02   9.2691413e-03  -6.5639740e-02  -3.3425586e-02  -8.6614364e-03   9.9198230e-03   3.2258935e-02   7.5488869e-02  -1.2287068e-01   3.7924049e-02  -1.1424411e-02   4.6778746e-02   7.7010912e-02   2.7410102e-01  -3.8288456e-01
   3.7231238e-03   3.4894854e-03  -9.4273587e-04   7.2610611e-05  -1.2440716e-02   1.6660151e-02  -2.4147933e-02   1.6292351e-02  -3.6425698e-02   7.2419794e-03   1.2629689e-02   1.9114909e-02   1.4771572e-01   1.0475527e-02   5.1228120e-02   7.8784363e-02  -1.8199562e-01   7.4711756e-02  -2.7985900e-02  -1.7274610e-02  -1.3565699e-01  -1.0095627e-02  -8.2046844e-02
   6.9601989e-03  -3.9921115e-03  -3.4150399e-03  -4.1685405e-02  -5.3612807e-02  -3.6250126e-02   8.6218909e-03   3.4797296e-02   5.3334383e-02  -5.9474120e-03   1.0350225e-02  -8.4050939e-03   1.6066298e-02   1.5857214e-01  -3.2727893e-03  -5.8502416e-02  -8.3635524e-02   2.3996703e-03   1.3045449e-01   2.6968455e-01   1.3303847e-01  -3.3838676e-01   1.2479601e-01
   6.7449076e-03   7.0998156e-03   8.6080230e-03  -1.6010448e-02  -4.6503265e-02  -1.5762517e-02  -2.6239026e-02   7.7876076e-02   3.9925214e-02   4.1422793e-03  -2.2860651e-02  -5.6304290e-02   1.0877779e-01   6.3846171e-02  -2.2399195e-02  -7.8372486e-02  -1.7382784e-01  -7.4096547e-02   1.0028664e-01  -4.4768281e-02  -1.8117549e-01   2.6814722e-01   6.8179609e-02
  -8.2846046e-03  -1.3765592e-02  -1.7475139e-02  -4.4699907e-03   3.3762990e-02  -3.7584674e-02  -1.9370342e-02  -4.6585476e-02  -6.6143120e-02  -5.3847468e-02   2.5776636e-02   3.4311103e-02  -1.2438856e-02   1.4354590e-01   5.6995750e-02  -4.7437275e-02  -1.0138829e-01   7.6400162e-03   1.1917975e-01   6.6087522e-02  -1.4419564e-01  -1.1668341e-01  -2.1470324e-01
  -3.2158167e-03  -2.9404217e-03  -1.0273625e-02   8.5187596e-03   1.2254393e-02   7.2566950e-03   6.2493627e-02   1.2625137e-02   5.6722989e-02   1.3585392e-02   1.9309242e-02  -3.0216369e-02  -1.0875272e-01  -1.4675971e-01  -2.5788277e-02   9.2188481e-03   8.6962685e-02  -1.3761909e-01  -1.7824095e-01  -1.0935564e-01   1.7911969e-01   9.9190831e-02   5.6839963e-02
   7.9266124e-04  -4.2871806e-03   1.1046874e-03  -1.3558671e-02  -1.2420163e-03   2.1940742e-03  -1.2047096e-02  -3.3793932e-03  -1.9773598e-02  -1.1036638e-02   2.8801511e-03   3.3414856e-03  -4.1961821e-02   3.0695257e-02  -1.6963086e-02  -3.3019414e-02   4.8641707e-02  -6.2245963e-03   9.2520169e-02   1.1652149e-02   4.0305367e-02   1.5501497e-02  -3.4177286e-02
  -8.3505952e-04   1.0986857e-03   3.7888998e-03   1.3825296e-02  -3.8282385e-02   4.4229740e-02   3.3009807e-02  -5.0604012e-02  -1.6906365e-02   1.0112353e-01  -6.0347618e-02  -4.4644903e-02  -8.2759115e-04  -1.2319986e-01   5.2655945e-02   7.5401308e-03   3.5917307e-02  -1.8308231e-02   3.0092926e-01  -4.2900637e-02  -1.1438238e-01  -2.7295759e-01   6.1982761e-02
  -6.0836798e-03  -8.9987956e-03   1.2009428e-02   1.0011735e-02  -1.4181844e-02  -4.7194321e-02  -2.9687707e-02   1.0198445e-01   6.6794232e-02   8.7452247e-04  -1.2180540e-03   2.9909341e-02  -7.4399432e-02   1.7611542e-03  -5.7902182e-02  -6.9645008e-04  -1.1234493e-02   3.5172874e-02  -4.3225888e-01  -3.0898444e-02  -1.8906044e-01  -1.2111949e-01  -6.1207852e-02
   1.1368622e-04  -1.0456746e-02   4.9005650e-03   2.3784047e-02  -3.0331772e-02   1.7341539e-02  -1.3972455e-02  -7.6519838e-03   5.7053887e-02   1.1378170e-01  -1.5640320e-01  -8.8563549e-02  -1.0648514e-01  -7.6877122e-02  -6.7922146e-02   1.6180315e-01   1.9129887e-01  -8.0255448e-02   1.4024215e-01   2.1279420e-01   1.1413988e-01   6.8930335e-02   3.2796632e-02
   4.8177844e-03  -6.3465392e-03   2.5374067e-02  -9.5424003e-03  -1.6491879e-02  -4.9720049e-02  -3.3964955e-02   2.0108449e-02  -9.7554858e-02   4.1552763e-03  -3.9448199e-02  -2.3255973e-03  -2.8730822e-02   1.3682202e-02   5.7966684e-02   1.3496561e-01  -1.0227908e-01   4.4742638e-02  -3.6130016e-02   8.3012217e-02   7.9633800e-03   1.9955282e-01  -3.7261359e-01
   4.4976449e-03   4.0852481e-03   1.4716588e-03  -2.8467096e-03  -1.6305005e-02   1.6858237e-02  -3.5938456e-02   1.2795320e-02  -5.2815484e-02   5.0195038e-03   1.4063825e-02   2.3422869e-02   1.5437353e-01   3.6063125e-02   5.2433934e-02   1.0225230e-01  -1.9274568e-01   1.0296988e-01   2.4222404e-02  -5.1510444e-02  -1.7798741e-01   1.2429701e-03  -9.1239447e-02
   5.8413221e-03  -3.2497298e-03  -2.5696666e-03  -3.9551482e-02  -5.0960881e-02  -4.5079815e-02   1.9454266e-02   2.9788272e-02   3.4067628e-02  -1.4056272e-02   1.1362982e-02   3.1594194e-02   6.3115820e-04   1.6761492e-01  -3.1358959e-02  -2.0962910e-02  -8.7130356e-02  -4.1532253e-02   8.0699918e-02   3.0409564e-01   9.3770996e-02  -3.3032204e-01   7.1674649e-02
   7.8366955e-03   8.3314269e-03   9.9690870e-03  -2.2516546e-02  -5.8960485e-02  -2.0282460e-02  -2.1782829e-02   8.6405070e-02   5.0873839e-02   8.2189422e-03  -3.0503051e-02  -4.3350348e-02   1.2086699e-01   6.6898794e-02  -3.0018707e-02  -5.7366491e-02  -1.6403436e-01  -9.1684838e-02   1.4905878e-01  -7.2851410e-02  -1.8333097e-01   2.7858900e-01   6.4070704e-02
  -7.7314403e-03  -1.4695860e-02  -1.7109602e-02  -8.2865162e-03   3.1341255e-02  -3.3934141e-02  -2.2967146e-02  -4.2145595e-02  -6.4081037e-02  -5.7125376e-02   1.3557500e-02   2.2114992e-02  -2.4572984e-02   1.3915055e-01   7.1052664e-02  -5.0607642e-02  -9.7641449e-02   1.2833533e-02   1.2010691e-01   4.6376394e-02  -1.4158796e-01  -9.3022813e-02  -2.5329788e-01
  -2.8643495e-03  -3.8959518e-03  -8.8029822e-03   1.1957690e-02   1.0225103e-02   4.2626114e-03   5.1423236e-02   1.1249732e-02   5.2730824e-02   2.1240138e-02   3.2955712e-02  -5.0544277e-02  -1.0290314e-01  -1.4660743e-01  -9.6465898e-03  -6.8472441e-03   9.7163701e-02  -1.2578584e-01  -1.6045692e-01  -9.3808166e-02   1.1828329e-01   4.0475199e-02   3.0498037e-02
   6.5003428e-04  -1.6112843e-03  -1.7170984e-03  -8.4938064e-03  -1.3569229e-03   3.1877457e-03  -1.5184747e-02  -7.3858966e-03  -2.2147356e-02  -6.8028371e-03   1.4223615e-02  -4.7712427e-03   2.4537519e-02   1.5417158e-02   2.3014235e-02   1.4730096e-02   3.5300375e-02  -2.1923982e-03   7.0196562e-02  -2.0936096e-02   4.2377553e-02   3.3861459e-02  -4.2874766e-02
   1.0176456e-05   1.9686708e-03   1.2378850e-03   1.3505018e-03  -3.4772372e-02   3.8344837e-02   2.1169773e-02  -5.2729850e-02  -1.0322817e-02   9.4599447e-02  -2.8795266e-02  -3.2572092e-02   6.2523381e-03  -1.1009891e-01   6.6134435e-02   4.8851675e-04   2.5055521e-02  -1.1861672e-02   3.2622450e-01  -4.9003130e-02  -7.2376301e-02  -3.1546407e-01   1.7173749e-02
  -5.3893721e-03  -8.1340670e-03   7.7100916e-03   1.0053613e-02  -1.3373431e-02  -5.7143310e-02  -2.4517784e-02   9.3145540e-02   6.7635678e-02  -1.4117518e-02  -1.5638953e-02   2.8380137e-02  -6.2533436e-02   5.6611254e-02  -6.1750185e-02  -3.4662784e-02   5.2430364e-02   3.4854084e-02  -4.0503140e-01   1.3737677e-02  -2.5086437e-01  -1.2684017e-01   6.4599642e-03
  -5.3295584e-04  -1.0529408e-02   5.0050611e-03   1.9651637e-02  -2.7367551e-02   1.7488874e-02  -1.2753940e-02   3.0321749e-03   6.2733685e-02   1.1533192e-01  -1.2444464e-01  -6.9968520e-02  -1.0629732e-01  -4.4195942e-02  -8.1490575e-02   1.7951616e-01   1.4055279e-01  -5.3186967e-02   1.1633537e-01   2.6045024e-01   3.5589897e-02  -1.6654059e-02   1.2448001e-02
   3.6372828e-03  -6.4395979e-03   2.4852888e-02  -9.6274341e-03  -2.5327526e-02  -5.4826493e-02  -2.4231302e-02   1.1693119e-02  -1.1569351e-01  -3.0463704e-03  -1.3672841e-02   3.1672015e-02  -4.1049543e-02   1.9774480e-02   6.9910280e-02   1.8163118e-01  -7.5075790e-02   4.7355683e-02  -6.6620239e-02   1.2079841e-01  -6.4256347e-02   1.1816120e-01  -3.2697945e-01
   4.8797288e-03   4.0068617e-03   3.6650246e-03  -5.8255508e-03  -1.9543614e-02   1.5474523e-02  -4.4422689e-02   9.7760800e-03  -6.4603270e-02   3.4516650e-04   1.4994832e-02   2.4470562e-02   1.4439833e-01   5.9019919e-02   4.9486789e-02   1.1572201e-01  -1.9189265e-01   1.2782925e-01   7.0080319e-02  -7.6790161e-02  -2.1206635e-01   3.9959401e-03  -8.6552469e-02
   4.8267367e-03  -2.1295281e-03  -6.4071610e-04  -3.6503747e-02  -4.8439462e-02  -5.2559120e-02   2.9750718e-02   2.4875913e-02   1.2133485e-02  -2.4161518e-02   1.2349691e-02   7.1579233e-02  -1.5923847e-02   1.6483019e-01  -5.8624285e-02   6.0895014e-03  -8.7222855e-02  -8.6980101e-02   2.2430270e-02   3.3816584e-01   5.4056800e-02  -3.2457353e-01   2.1139712e-02
   8.8221900e-03   9.1564053e-03   1.1489403e-02  -2.8661617e-02  -7.1298231e-02  -2.5907046e-02  -1.7633544e-02   9.4366497e-02   6.0230431e-02   1.3251930e-02  -3.7449846e-02  -3.2070658e-02   1.3033389e-01   6.7527818e-02  -3.3714301e-02  -4.2172439e-02  -1.4185188e-01  -9.9759409e-02   1.9706584e-01  -9.2489312e-02  -1.7532217e-01   2.6816526e-01   5.8818592e-02
  -7.2044300e-03  -1.4230027e-02  -1.5841283e-02  -8.7642417e-03   2.9106420e-02  -3.2790411e-02  -2.3883719e-02  -3.3337219e-02  -6.2365183e-02  -5.2331853e-02  -2.0606521e-04   2.0841355e-02  -3.6719288e-02   1.3708318e-01   6.3908965e-02  -3.9639760e-02  -8.5472098e-02   2.3307951e-02   1.1078462e-01   2.2332132e-02  -1.4909204e-01  -5.0126667e-02  -2.4444682e-01
  -2.4630461e-03  -4.2569204e-03  -7.3212703e-03   1.6153459e-02   9.3505475e-03  -1.9336162e-04   3.6520075e-02   7.3675108e-03   4.5727046e-02   2.9690865e-02   5.2073748e-02  -6.6102529e-02  -7.6483168e-02  -1.4753231e-01   7.8272222e-03  -3.9753414e-02   1.0487342e-01  -1.1451016e-01  -1.2771611e-01  -5.3436783e-02   3.8776789e-02  -3.8440424e-02   1.9610208e-04
   4.1981627e-04   1.0665789e-03  -4.0425259e-03  -3.3449705e-04  -2.6287489e-03   3.3974257e-03  -1.7834195e-02  -1.1379057e-02  -2.8067126e-02  -1.7360720e-03   2.3764117e-02  -1.9130339e-02   9.5463449e-02  -3.3118878e-03   7.4490707e-02   6.0691532e-02   1.1317160e-02   3.3327448e-03   3.0579478e-02  -5.7563788e-02   4.4078262e-02   4.5477226e-02  -2.7322720e-02
   1.2257034e-03   2.6775000e-03  -1.3395975e-04  -1.0023547e-02  -2.7078634e-02   3.1762978e-02   8.4014929e-03  -5.4055360e-02  -1.4018217e-02   8.0198465e-02   1.0623461e-02  -1.2388782e-02   8.8984090e-03  -8.9733218e-02   6.7474859e-02  -1.7215027e-02   1.2553418e-02  -1.5573376e-02   3.1187252e-01  -8.5608048e-02  -8.9049122e-03  -3.2289840e-01  -2.8126678e-02
  -4.5147662e-03  -6.6967036e-03   2.6381805e-03   9.4500452e-03  -1.1460889e-02  -6.4076346e-02  -1.6142498e-02   7.6942126e-02   5.5872005e-02  -3.1868052e-02  -3.1519829e-02   3.7866700e-02  -4.6012423e-02   1.1384562e-01  -6.1037531e-02  -7.3263726e-02   1.3089352e-01   2.1003288e-02  -3.6240167e-01   4.2544250e-02  -2.9574926e-01  -1.1914393e-01   8.4163077e-02
  -1.1711073e-03  -9.9881284e-03   5.7445296e-03   1.6017536e-02  -2.1987377e-02   1.8641929e-02  -9.7625299e-03   1.5583269e-02   6.4485136e-02   1.1009619e-01  -8.4578404e-02  -4.0815126e-02  -9.9938889e-02  -7.4563658e-03  -8.9284758e-02   1.8381079e-01   7.8980789e-02  -1.8739370e-02   7.5510871e-02   2.9806270e-01  -4.7597688e-02  -8.7897582e-02  -5.3117404e-03
   2.4990736e-03  -6.1848719e-03   2.2659589e-02  -8.5413784e-03  -2.9886812e-02  -5.7873377e-02  -1.2883666e-02   1.9847380e-03  -1.2344791e-01  -1.1548693e-02   7.9973161e-03   6.5511045e-02  -4.2192293e-02   2.6577905e-02   6.4883487e-02   2.1116247e-01  -4.4186515e-02   4.4214337e-02  -1.0073023e-01   1.5895882e-01  -1.3516160e-01   3.6999555e-02  -2.4227686e-01
   4.8075216e-03   3.3043831e-03   5.6166168e-03  -8.7350831e-03  -2.1720144e-02   1.2297759e-02  -4.8843033e-02   7.1749449e-03  -7.0275646e-02  -7.6172504e-03   1.6245033e-02   2.3391718e-02   1.1931690e-01   7.7424731e-02   4.4791165e-02   1.1484609e-01  -1.8130226e-01   1.4489517e-01   1.0328960e-01  -8.8368626e-02  -2.3349734e-01  -3.1972666e-03  -7.3189369e-02
   4.0038955e-03  -7.9271725e-04   2.1944657e-03  -3.2890064e-02  -4.6443257e-02  -5.8026154e-02   3.8662085e-02   1.9963346e-02  -1.1449617e-02  -3.5998544e-02   1.3547301e-02   1.0857462e-01  -3.2849852e-02   1.4951202e-01  -8.1503524e-02   1.8975855e-02  -8.3305695e-02  -1.3275334e-01  -4.0534305e-02   3.6992873e-01   1.6232387e-02  -3.2589099e-01  -2.5750436e-02
   9.5169987e-03   9.4949929e-03   1.2892432e-02  -3.3233927e-02  -8.0929190e-02  -3.1269574e-02  -1.4115068e-02   1.0021002e-01   6.6412807e-02   1.9089579e-02  -4.3675569e-02  -2.3196043e-02   1.3535874e-01   6.4961110e-02  -3.5091988e-02  -3.2946043e-02  -1.1052710e-01  -9.7930992e-02   2.3809905e-01  -1.0126448e-01  -1.5880895e-01   2.3913610e-01   5.4873917e-02
  -6.8350212e-03  -1.2273132e-02  -1.3415336e-02  -5.4804992e-03   2.7868751e-02  -3.4642003e-02  -2.1990877e-02  -2.0537058e-02  -6.1336474e-02  -3.8788106e-02  -1.5711188e-02   3.2595514e-02  -4.1836357e-02   1.3547830e-01   3.3113842e-02  -1.6374243e-02  -6.9638571e-02   3.7848475e-02   9.7689649e-02  -1.2162726e-04  -1.6684004e-01   1.4460519e-02  -1.8981440e-01
  -2.0484373e-03  -3.6376801e-03  -6.0197950e-03   2.1411293e-02   9.5638472e-03  -5.3253896e-03   1.9694833e-02   1.2243346e-03   3.5078053e-02   3.7728678e-02   7.4483384e-02  -7.4224201e-02  -2.5613189e-02  -1.5122594e-01   2.7801356e-02  -8.2084621e-02   1.0480979e-01  -1.0491790e-01  -8.8855404e-02   6.5668647e-04  -4.7740252e-02  -1.2368376e-01  -2.7494447e-02
   7.4205425e-05   3.1399586e-03  -5.0792554e-03   9.5840494e-03  -4.4071826e-03   1.9203611e-03  -1.9692935e-02  -1.4840623e-02  -3.5462713e-02   4.0821735e-03   3.0396516e-02  -3.6479748e-02   1.5617446e-01  -2.3009780e-02   1.2496697e-01   8.8985623e-02  -1.4862189e-02   6.7044313e-03  -1.4410868e-02  -8.2809228e-02   4.0334878e-02   4.0075736e-02   6.5988715e-03
   2.5388095e-03   3.2222673e-03   6.4528324e-05  -1.8369161e-02  -1.7073240e-02   2.5249133e-02  -3.9133322e-03  -5.3692179e-02  -2.5805480e-02   6.1259714e-02   5.2617254e-02   8.6222154e-03   7.2146136e-03  -6.7322056e-02   5.9228532e-02  -4.0296972e-02  -1.1876915e-02  -3.0940512e-02   2.5970832e-01  -1.5103733e-01   7.5359983e-02  -2.9496779e-01  -6.2533006e-02
  -3.6085158e-03  -4.7267519e-03  -2.6731748e-03   8.8756649e-03  -9.2992298e-03  -6.7619592e-02  -5.1029198e-03   5.4998458e-02   3.3686501e-02  -5.0931854e-02  -4.9903193e-02   5.4843935e-02  -2.6496712e-02   1.6672000e-01  -5.3963735e-02  -1.1298320e-01   2.1675640e-01  -5.6368822e-03  -3.0684793e-01   5.3056726e-02  -3.2220574e-01  -9.6764588e-02   1.7203240e-01
  -1.8871706e-03  -8.8397435e-03   7.3247272e-03   1.3625527e-02  -1.4751694e-02   2.1197952e-02  -4.8845624e-03   2.9953400e-02   6.3401145e-02   9.9519343e-02  -4.0487556e-02  -4.9981143e-03  -8.7644304e-02   2.9805136e-02  -9.0400804e-02   1.7674941e-01   5.7215792e-03   2.2637629e-02   2.3933993e-02   3.2478197e-01  -1.3320714e-01  -1.4261946e-01  -1.4142558e-02
   1.3718488e-03  -5.5780376e-03   1.8804808e-02  -5.9424521e-03  -2.9764393e-02  -5.8626957e-02  -7.2377152e-04  -8.3561080e-03  -1.1810431e-01  -2.0355082e-02   2.2215558e-02   9.6186832e-02  -2.9318558e-02   3.2290466e-02   4.1670725e-02   2.2156381e-01  -1.2813981e-02   3.4085047e-02  -1.3446694e-01   1.9768096e-01  -2.0061902e-01  -3.7270064e-02  -1.1907053e-01
   4.2576022e-03   2.1360263e-03   7.3299403e-03  -1.1256266e-02  -2.2567458e-02   7.3206998e-03  -4.8660423e-02   4.8203522e-03  -6.9286559e-02  -1.9480305e-02   1.8437035e-02   2.1467423e-02   8.3207812e-02   8.9185149e-02   4.2071553e-02   9.6881800e-02  -1.6410723e-01   1.5000173e-01   1.1697527e-01  -8.4233325e-02  -2.3713759e-01  -1.9143442e-02  -5.6249228e-02
   3.4339901e-03   5.5093933e-04   5.5620176e-03  -2.9196556e-02  -4.5308103e-02  -6.0926840e-02   4.5326837e-02   1.4924030e-02  -3.5406478e-02  -4.9209496e-02   1.5240695e-02   1.3948928e-01  -4.9625220e-02   1.2239387e-01  -9.6561109e-02   1.5866263e-02  -7.4698019e-02  -1.7723916e-01  -1.0375490e-01   3.9624181e-01  -1.7587822e-02  -3.3770243e-01  -6.8635615e-02
   9.7300091e-03   9.2946293e-03   1.3887661e-02  -3.5062456e-02  -8.5237914e-02  -3.4927749e-02  -1.1503943e-02   1.0235769e-01   6.8046722e-02   2.5470777e-02  -4.8853222e-02  -1.7413252e-02   1.3402143e-01   5.8628728e-02  -3.5817055e-02  -2.8855678e-02  -7.4668118e-02  -8.6355402e-02   2.6530731e-01  -9.7262730e-02  -1.3664959e-01   1.9508808e-01   5.3646208e-02
  -6.7372720e-03  -9.0507279e-03  -9.9144931e-03   1.4848556e-03   2.7899703e-02  -3.9284477e-02  -1.7943832e-02  -4.7919619e-03  -6.1146877e-02  -1.6752800e-02  -3.2750452e-02   5.5173352e-02  -3.3903359e-02   1.3267239e-01  -1.7850476e-02   1.6360242e-02  -5.6110549e-02   5.5659266e-02   8.8265273e-02  -1.6495638e-02  -1.9405705e-01   9.8317491e-02  -9.7230590e-02
  -1.6768969e-03  -1.8712086e-03  -5.0136587e-03   2.7876107e-02   1.0216916e-02  -1.0054906e-02   3.6783449e-03  -6.1065345e-03   2.0883253e-02   4.4262030e-02   9.5800743e-02  -7.4359785e-02   4.7367607e-02  -1.5884345e-01   5.1910942e-02  -1.2167913e-01   9.2629913e-02  -9.6823394e-02  -5.4868284e-02   5.2921803e-02  -1.2529318e-01  -1.9705713e-01  -4.5194201e-02
  -3.9895332e-04   4.2225535e-03  -4.2144857e-03   1.9327865e-02  -5.5267841e-03  -2.0673724e-03  -2.0847645e-02  -1.7400819e-02  -4.1178718e-02   1.0479287e-02   3.4659456e-02  -5.1508263e-02   1.9368993e-01  -3.9987060e-02   1.5980889e-01   8.5273045e-02  -3.3859389e-02   4.2327808e-03  -4.9104193e-02  -8.1439979e-02   2.4081420e-02   1.0211184e-02   4.7422127e-02
   3.6358245e-03   3.6413448e-03   1.7905954e-03  -2.2775793e-02  -6.7081599e-03   1.9107189e-02  -1.4696175e-02  -5.0700215e-02  -4.1035844e-02   4.0973237e-02   9.2086869e-02   2.3151386e-02   2.9112454e-03  -4.6845776e-02   4.6329053e-02  -6.1224771e-02  -5.7445443e-02  -5.7192774e-02   1.7885872e-01  -2.3594425e-01   1.7744339e-01  -2.3683944e-01  -8.0676996e-02
  -2.8247326e-03  -2.2765280e-03  -7.8076696e-03   8.6290565e-03  -7.6315073e-03  -6.7735459e-02   7.6526917e-03   2.9468746e-02   4.9210222e-03  -6.9615310e-02  -7.1212084e-02   7.5102663e-02  -4.9712581e-03   2.0958248e-01  -3.8914348e-02  -1.4945261e-01   3.0152826e-01  -4.2767196e-02  -2.3964948e-01   4.6396298e-02  -3.2955877e-01  -6.1045716e-02   2.6682786e-01
  -2.7600005e-03  -7.1124788e-03   9.6930735e-03   1.2790927e-02  -6.4145258e-03   2.5147851e-02   1.6128198e-03   4.5842283e-02   6.1361798e-02   8.5136235e-02   4.0134926e-03   3.3122208e-02  -6.9240546e-02   6.4534454e-02  -8.3930276e-02   1.6141515e-01  -7.9409709e-02   7.0162039e-02  -3.0207285e-02   3.4178731e-01  -2.1851824e-01  -1.8058759e-01  -1.0250298e-02
   2.2912560e-04  -4.6391433e-03   1.3399579e-02  -1.8661676e-03  -2.5004026e-02  -5.7016513e-02   1.1367193e-02  -1.8738436e-02  -9.8039412e-02  -2.8558769e-02   2.6623928e-02   1.2126235e-01  -6.4814187e-04   3.5440402e-02   1.2420243e-03   2.1293769e-01   1.6124067e-02   1.6199121e-02  -1.6256396e-01   2.3787459e-01  -2.5687412e-01  -9.8833133e-02   3.7143838e-02
   3.2463557e-03   7.3361294e-04   8.8023986e-03  -1.2891175e-02  -2.2131318e-02   8.3178869e-04  -4.3545197e-02   2.5480848e-03  -6.2126278e-02  -3.5340547e-02   2.1510843e-02   1.9610310e-02   4.2085335e-02   9.2170582e-02   4.6027812e-02   6.2017520e-02  -1.4431917e-01   1.3999394e-01   1.0445077e-01  -6.5615120e-02  -2.1731119e-01  -3.9917899e-02  -3.9666942e-02
   3.1451849e-03   1.6671666e-03   8.9388198e-03  -2.6018004e-02  -4.5203077e-02  -6.0910110e-02   4.8952992e-02   9.6571096e-03  -5.8292786e-02  -6.3337548e-02   1.7766257e-02   1.6158680e-01  -6.5845086e-02   8.5855967e-02  -1.0108724e-01  -3.0326214e-03  -6.0817740e-02  -2.1847340e-01  -1.6231176e-01   4.1277877e-01  -4.5697488e-02  -3.6106546e-01  -1.0758239e-01
   9.2946077e-03   8.5275942e-03   1.4217088e-02  -3.3230147e-02  -8.1990745e-02  -3.5578446e-02  -1.0023305e-02   9.9445218e-02   6.4182586e-02   3.1967131e-02  -5.2347635e-02  -1.5347626e-02   1.2458620e-01   4.8319337e-02  -3.7163301e-02  -2.8410838e-02  -3.9746724e-02  -6.5802326e-02   2.7226017e-01  -7.9537983e-02  -1.1233886e-01   1.4047947e-01   5.4976266e-02
  -6.9742659e-03  -5.1244203e-03  -5.9046159e-03   1.1328457e-02   2.8909231e-02  -4.5715357e-02  -1.3195336e-02   1.2053861e-02  -6.1639950e-02   1.2026630e-02  -4.9994583e-02   8.1928309e-02  -9.7623907e-03   1.2813312e-01  -7.9070217e-02   5.5003056e-02  -5.0430693e-02   7.6185632e-02   8.9077697e-02  -2.5522124e-02  -2.2885047e-01   1.9348821e-01   1.9096382e-02
  -1.4185038e-03   9.0874103e-04  -4.3221887e-03   3.5138660e-02   1.0323431e-02  -1.3233590e-02  -8.3197870e-03  -1.2859674e-02   4.7196089e-03   4.8412993e-02   1.1019991e-01  -6.7549258e-02   1.3261875e-01  -1.7048169e-01   8.0475259e-02  -1.4433577e-01   6.6597200e-02  -8.9506554e-02  -3.5869057e-02   8.7712900e-02  -1.7640797e-01  -2.3944259e-01  -4.7812984e-02
  -9.6985439e-04   4.1980977e-03  -1.2193312e-03   2.6709299e-02  -4.6984942e-03  -8.8597574e-03  -2.1633307e-02  -1.8801093e-02  -4.2164074e-02   1.6890978e-02   3.8140516e-02  -5.8352328e-02   1.9895004e-01  -4.9806036e-02   1.6607463e-01   4.1348442e-02  -3.8027994e-02  -5.9446484e-03  -5.8604235e-02  -4.4236870e-02  -1.0191428e-02  -4.5046857e-02   8.1856179e-02
   4.2536701e-03   4.0097900e-03   4.5772811e-03  -2.3577325e-02   2.6655205e-03   1.3184157e-02  -2.3259172e-02  -4.4542659e-02  -5.4236824e-02   2.1163672e-02   1.2560101e-01   2.6462562e-02  -8.1345849e-04  -2.9480287e-02   3.4710981e-02  -7.3239265e-02  -1.2949846e-01  -9.1961351e-02   8.3133343e-02  -3.2597871e-01   2.9279120e-01  -1.5737326e-01  -8.4239837e-02
  -2.2808223e-03   5.8295436e-04  -1.2473949e-02   8.5578539e-03  -6.7845326e-03  -6.4684628e-02   2.0758051e-02   2.7953303e-03  -2.5716682e-02  -8.6412629e-02  -9.4617083e-02   9.4838470e-02   1.8233199e-02   2.3873244e-01  -1.5199788e-02  -1.7886877e-01   3.7681252e-01  -8.6890837e-02  -1.6190454e-01   2.6294372e-02  -3.1759759e-01  -1.5184381e-02   3.6168447e-01
  -3.8240462e-03  -4.8670555e-03   1.2523403e-02   1.3311953e-02   2.2896614e-03   3.0049779e-02   9.0596513e-03   6.2490598e-02   6.0390557e-02   6.8130027e-02   4.5553646e-02   6.9646642e-02  -4.4256706e-02   9.4726218e-02  -6.9556623e-02   1.4082556e-01  -1.7486859e-01   1.2227292e-01  -7.8038173e-02   3.5133610e-01  -2.9992114e-01  -2.0298897e-01   6.8140131e-03
  -9.2755596e-04  -3.4154790e-03   6.6970017e-03   3.2404071e-03  -1.6022864e-02  -5.3145539e-02   2.2487715e-02  -2.8724590e-02  -6.3328080e-02  -3.5605226e-02   2.0439085e-02   1.3929602e-01   4.3996540e-02   3.5266785e-02  -5.3251890e-02   1.8697624e-01   4.0402827e-02  -9.6388571e-03  -1.7943390e-01   2.8012381e-01  -3.0052689e-01  -1.4304578e-01   2.1603386e-01
   1.8306894e-03  -6.4528253e-04   9.9962436e-03  -1.3076509e-02  -2.0829968e-02  -6.5444862e-03  -3.3427360e-02   3.0569764e-04  -5.0157193e-02  -5.4516245e-02   2.4423698e-02   1.8017894e-02   2.9098897e-03   8.4558080e-02   6.1525441e-02   1.4224018e-02  -1.2616640e-01   1.1346124e-01   6.0679013e-02  -3.6700915e-02  -1.6866968e-01  -5.9340665e-02  -2.5834430e-02
   3.1252886e-03   2.3276752e-03   1.1733907e-02  -2.3975540e-02  -4.6045358e-02  -5.7936920e-02   4.8897641e-02   4.1788912e-03  -7.8624396e-02  -7.7743004e-02   2.1444956e-02   1.7291574e-01  -8.0986932e-02   4.3976097e-02  -9.3689476e-02  -3.5434932e-02  -4.1500593e-02  -2.5419360e-01  -2.1088574e-01   4.1421058e-01  -6.7087881e-02  -3.9370776e-01  -1.4251324e-01
   8.1049546e-03   7.1919711e-03   1.3701247e-02  -2.7286838e-02  -6.9773102e-02  -3.2282437e-02  -9.8284190e-03   9.0592868e-02   5.4485542e-02   3.7940172e-02  -5.3299879e-02  -1.7500813e-02   1.0585277e-01   3.4362565e-02  -3.9637156e-02  -2.9859847e-02  -1.1434485e-02  -3.7721370e-02   2.5417833e-01  -4.8685898e-02  -8.9348882e-02   8.0236878e-02   5.7015066e-02
  -7.5247598e-03  -1.3488636e-03  -2.4490234e-03   2.2365435e-02   3.0237686e-02  -5.2182865e-02  -9.8204962e-03   2.7333196e-02  -6.2344301e-02   4.3777007e-02  -6.4446875e-02   1.0286986e-01   2.9354438e-02   1.2320761e-01  -1.3522831e-01   9.4944665e-02  -5.6087535e-02   9.8574380e-02   1.0400139e-01  -3.0341956e-02  -2.6769563e-01   2.8695903e-01   1.3913909e-01
  -1.3414629e-03   4.2447146e-03  -3.8337277e-03   4.1958321e-02   9.0108745e-03  -1.3963391e-02  -1.3193673e-02  -1.6935404e-02  -1.0080288e-02   4.9455177e-02   1.1195469e-01  -5.5405595e-02   2.1296701e-01  -1.8452887e-01   1.1070331e-01  -1.3806029e-01   2.8869589e-02  -8.2528355e-02  -3.8057212e-02   9.3632305e-02  -1.8614151e-01  -2.3497258e-01  -3.5086660e-02
  -1.5493084e-03   3.2103800e-03   3.5705972e-03   2.9742272e-02  -1.0868515e-03  -1.7762864e-02  -2.2344641e-02  -1.8825902e-02  -3.6654172e-02   2.2275269e-02   4.2315306e-02  -5.2551677e-02   1.6881340e-01  -4.8438888e-02   1.3665836e-01  -4.0271500e-02  -2.3786859e-02  -2.2662904e-02  -3.3794826e-02   2.7056633e-02  -6.2188637e-02  -1.1727115e-01   9.8653450e-02
   4.2510952e-03   4.4257995e-03   7.6753162e-03  -2.2162644e-02   1.0723227e-02   7.0352477e-03  -2.9240779e-02  -3.5408345e-02  -6.0913651e-02   1.6515599e-03   1.5218859e-01   1.8143923e-02   9.2107924e-05  -1.3110941e-02   2.9695372e-02  -7.3106786e-02  -2.2770310e-01  -1.3218511e-01  -1.2682371e-02  -4.0562961e-01   4.1581518e-01  -6.6761629e-02  -8.0226556e-02
  -2.0269112e-03   3.7521912e-03  -1.6458142e-02   8.1630804e-03  -6.5041000e-03  -5.8908626e-02   3.2490605e-02  -2.2485520e-02  -5.3495627e-02  -1.0019168e-01  -1.1775882e-01   1.1133278e-01   4.3160942e-02   2.5272700e-01   1.6218736e-02  -1.9920581e-01   4.3509463e-01  -1.3377852e-01  -7.5848456e-02  -2.3486527e-03  -2.8631645e-01   3.6765341e-02   4.4706370e-01
  -5.0411772e-03  -2.2106212e-03   1.5257222e-02   1.4538246e-02   1.0776922e-02   3.5074616e-02   1.6431116e-02   7.8536592e-02   6.1941735e-02   4.9086670e-02   8.1535793e-02   1.0175550e-01  -1.2235710e-02   1.1959377e-01  -4.8160440e-02   1.1694984e-01  -2.7667504e-01   1.7618768e-01  -1.1167679e-01   3.5539165e-01  -3.7262345e-01  -2.1171236e-01   3.4365541e-02
  -2.0526481e-03  -1.9842178e-03  -8.4979712e-04   8.5839333e-03  -3.5579944e-03  -4.7280124e-02   3.1794474e-02  -3.8064845e-02  -1.6249416e-02  -4.1416367e-02   4.8442288e-03   1.5003990e-01   1.0264015e-01   3.1842296e-02  -1.1663527e-01   1.4641407e-01   5.8644869e-02  -4.2950869e-02  -1.8028914e-01   3.2351819e-01  -3.2852758e-01  -1.6670449e-01   4.0326218e-01
   1.1056554e-04  -1.7712611e-03   1.0823011e-02  -1.1382991e-02  -1.9382563e-02  -1.3885060e-02  -1.8633647e-02  -1.7938704e-03  -3.5307886e-02  -7.5404261e-02   2.5202767e-02   1.6116136e-02  -2.7669841e-02   6.5463454e-02   9.2315880e-02  -3.8792663e-02  -1.1320848e-01   7.1349687e-02  -1.5737651e-02  -3.6349663e-03  -8.7790477e-02  -7.0161689e-02  -1.5820675e-02
   3.3137342e-03   2.3421727e-03   1.3387094e-02  -2.3588840e-02  -4.7464826e-02  -5.2385537e-02   4.4730050e-02  -1.2588895e-03  -9.5022993e-02  -9.1427349e-02   2.6439528e-02   1.7258918e-01  -9.4078204e-02   2.4014285e-03  -7.4740133e-02  -7.6986300e-02  -1.7408666e-02  -2.8182396e-01  -2.4374211e-01   3.9460488e-01  -8.1867147e-02  -4.2932388e-01  -1.7246549e-01
   6.1536899e-03   5.3202272e-03   1.2279647e-02  -1.7432426e-02  -4.8415255e-02  -2.4676492e-02  -1.0977737e-02   7.5681906e-02   3.9386090e-02   4.2548827e-02  -5.0807278e-02  -2.4115388e-02   7.7577417e-02   1.7781148e-02  -4.2773478e-02  -3.1552510e-02   5.2057223e-03  -4.3328748e-03   2.0919834e-01  -7.4201326e-03  -7.0462777e-02   1.9464658e-02   5.6547685e-02
  -8.2635387e-03   1.2413624e-03  -9.4226325e-04   3.2064680e-02   3.1201768e-02  -5.6439075e-02  -1.0140508e-02   3.7751482e-02  -6.2591983e-02   7.2494695e-02  -7.1394666e-02   1.0683781e-01   7.6992038e-02   1.2138788e-01  -1.6823524e-01   1.2984492e-01  -7.3385859e-02   1.2119879e-01   1.3281654e-01  -3.8571686e-02  -3.0507721e-01   3.6233393e-01   2.3914742e-01
  -1.4916086e-03   7.4050006e-03  -3.2688756e-03   4.6258337e-02   6.0289403e-03  -1.1930428e-02  -8.6735920e-03  -1.6404935e-02  -1.8841885e-02   4.6664130e-02   9.7373438e-02  -3.9072346e-02   2.6591368e-01  -1.9718021e-01   1.3568566e-01  -9.7803311e-02  -1.4153153e-02  -7.6146152e-02  -6.1521468e-02   6.6800356e-02  -1.4649817e-01  -1.7518499e-01  -1.2428935e-02
  -1.9885095e-03   1.6034302e-03   9.1604704e-03   2.7116303e-02   5.1105937e-03  -2.6812193e-02  -2.2906655e-02  -1.7255915e-02  -2.4962710e-02   2.5314440e-02   4.7252484e-02  -3.2904722e-02   1.0740286e-01  -3.3861920e-02   7.3609747e-02  -1.4325551e-01   7.0251934e-03  -4.1730499e-02   2.4502373e-02   1.1728174e-01  -1.2241922e-01  -1.8786380e-01   9.1490353e-02
   3.6376655e-03   4.9882401e-03   1.0277658e-02  -2.0421227e-02   1.8166346e-02   2.0336749e-04  -3.2418010e-02  -2.4277762e-02  -5.8921561e-02  -1.9503648e-02   1.7309856e-01   2.3968120e-03   9.4881490e-03   6.8222708e-03   3.4623329e-02  -6.2514743e-02  -3.4549936e-01  -1.7483100e-01  -9.6446210e-02  -4.6193901e-01   5.3988830e-01   2.5653282e-02  -7.7133816e-02
  -2.0358162e-03   7.0909171e-03  -1.9544757e-02   6.8491477e-03  -5.9971252e-03  -5.0859956e-02   4.0892330e-02  -4.3838014e-02  -7.4293880e-02  -1.1001479e-01  -1.3696191e-01   1.2298714e-01   6.9752068e-02   2.5205068e-01   5.2233648e-02  -2.1074773e-01   4.7002977e-01  -1.7884693e-01   1.4053986e-02  -3.4794556e-02  -2.3592214e-01   9.0779116e-02   5.1254446e-01
  -6.2893947e-03   6.8790595e-04   1.7184178e-02   1.5579021e-02   1.8602388e-02   3.9106977e-02   2.2452610e-02   9.1984413e-02   6.6332517e-02   2.8050693e-02   1.1010328e-01   1.2779772e-01   2.6801477e-02   1.3926825e-01  -2.2244015e-02   9.0216896e-02  -3.7818489e-01   2.2763423e-01  -1.2582916e-01   3.5427126e-01  -4.3058095e-01  -2.0870762e-01   6.7645411e-02
  -3.0520877e-03  -4.5462355e-04  -8.5287203e-03   1.3174141e-02   1.1336080e-02  -3.9819491e-02   3.8589588e-02  -4.6664003e-02   3.8437443e-02  -4.6314686e-02  -1.6904019e-02   1.5432995e-01   1.7067303e-01   2.5888579e-02  -1.8195463e-01   9.4663018e-02   7.0215664e-02  -8.2443751e-02  -1.6214986e-01   3.6469347e-01  -3.3825719e-01  -1.6832811e-01   5.8183955e-01
  -1.7654673e-03  -2.4936259e-03   1.1149243e-02  -7.7497360e-03  -1.8600111e-02  -2.0087171e-02  -1.1292020e-04  -3.4912324e-03  -1.9757121e-02  -9.5514138e-02   2.1425149e-02   1.2816545e-02  -4.4637093e-02   3.5820328e-02   1.3943512e-01  -8.6736532e-02  -1.0737955e-01   1.7397390e-02  -1.2039167e-01   2.6937297e-02   2.4610152e-02  -6.5847444e-02  -9.8906830e-03
   3.5941761e-03   1.5856547e-03   1.3461124e-02  -2.5130114e-02  -4.8833484e-02  -4.5127877e-02   3.6263819e-02  -6.0510020e-03  -1.0634837e-01  -1.0279441e-01   3.2569991e-02   1.6083661e-01  -1.0331393e-01  -3.1945863e-02  -4.6541594e-02  -1.2125503e-01   9.5644912e-03  -2.9839689e-01  -2.5460810e-01   3.4800908e-01  -9.1760227e-02  -4.5727204e-01  -1.9493357e-01
   3.5667625e-03   2.9980718e-03   1.0041081e-02  -4.6410045e-03  -1.9363470e-02  -1.3146385e-02  -1.3386187e-02   5.5606714e-02   2.0179487e-02   4.4842776e-02  -4.4189272e-02  -3.4945820e-02   4.0953755e-02   3.4639761e-04  -4.5190922e-02  -3.2164450e-02   6.6435017e-03   3.1204619e-02   1.3951798e-01   3.8970277e-02  -5.7182179e-02  -3.6685520e-02   4.9703395e-02
  -8.9678669e-03   1.6223993e-03  -2.7615476e-03   3.7386445e-02   3.1457582e-02  -5.6196624e-02  -1.6169445e-02   3.9898573e-02  -6.1698958e-02   9.0454397e-02  -6.5151133e-02   8.4397463e-02   1.2182506e-01   1.2775757e-01  -1.6125913e-01   1.5123482e-01  -9.9148002e-02   1.4147616e-01   1.7063699e-01  -6.0782862e-02  -3.3368019e-01   4.0266079e-01   2.9553676e-01
  -1.8725666e-03   9.5109203e-03  -2.1795972e-03   4.5494818e-02   2.0851145e-03  -7.6264532e-03   5.9394881e-03  -1.0057090e-02  -1.6660589e-02   3.9263557e-02   6.6535493e-02  -1.8624301e-02   2.6776490e-01  -2.0259801e-01   1.4487463e-01  -2.9077006e-02  -5.2709290e-02  -7.1318942e-02  -9.9583011e-02   1.2313979e-02  -5.9994673e-02  -6.2231748e-02   1.0261253e-02
  -2.1025067e-03  -1.7519275e-04   1.3960826e-02   1.8582957e-02   1.2345968e-02  -3.2869760e-02  -2.2648350e-02  -1.3883645e-02  -9.6490404e-03   2.4807343e-02   5.0758212e-02  -2.6540215e-03   2.6231268e-02  -7.4759755e-03  -1.0445247e-02  -2.3765804e-01   4.7107564e-02  -5.6947752e-02   1.0355941e-01   1.9909729e-01  -1.7145904e-01  -2.3030563e-01   6.0419580e-02
   2.5536801e-03   5.7648315e-03   1.1749870e-02  -1.9995805e-02   2.6267057e-02  -7.4654967e-03  -3.2466196e-02  -1.2700201e-02  -4.8981048e-02  -4.4863683e-02   1.9050773e-01  -1.3278800e-02   2.9790654e-02   3.5328288e-02   5.0130775e-02  -4.7492244e-02  -4.7063303e-01  -2.1704828e-01  -1.6105184e-01  -4.8685951e-01   6.5658442e-01   1.1271191e-01  -8.0453175e-02
  -2.2153283e-03   1.0404160e-02  -2.1440222e-02   4.2360495e-03  -4.1803734e-03  -4.0820546e-02   4.3918170e-02  -5.8711173e-02  -8.4849418e-02  -1.1461210e-01  -1.4792024e-01   1.2869444e-01   9.7266455e-02   2.3826039e-01   8.7487819e-02  -2.1569572e-01   4.7633951e-01  -2.1728571e-01   1.0070353e-01  -6.7183494e-02  -1.6718063e-01   1.4335516e-01   5.4876815e-01
  -7.3709559e-03   3.5816684e-03   1.7533828e-02   1.5588754e-02   2.5296544e-02   4.0874670e-02   2.5732947e-02   1.0029772e-01   7.2475633e-02   4.8874754e-03   1.2973740e-01   1.4680300e-01   7.1819444e-02   1.5410241e-01   3.9680023e-03   5.9730899e-02  -4.7027624e-01   2.7089439e-01  -1.1888254e-01   3.4574510e-01  -4.6672672e-01  -1.9565446e-01   1.0125696e-01
  -3.7912062e-03   1.0301869e-03  -1.5327935e-02   1.6018097e-02   2.7237966e-02  -3.1258803e-02   4.2400021e-02  -5.4481329e-02   9.3532319e-02  -5.0748961e-02  -3.9675342e-02   1.5367981e-01   2.4051784e-01   1.8328175e-02  -2.4076618e-01   3.5751856e-02   7.4936648e-02  -1.2577072e-01  -1.2448599e-01   3.9735844e-01  -3.2773336e-01  -1.4849159e-01   7.3366123e-01
  -3.5923850e-03  -2.7759833e-03   1.0821394e-02  -2.6781600e-03  -1.9086209e-02  -2.4041704e-02   2.0281146e-02  -4.4738840e-03  -5.7334011e-03  -1.1167607e-01   1.1064670e-02   7.0078232e-03  -4.5668748e-02  -6.7686809e-04   1.9957269e-01  -1.1880446e-01  -1.0817440e-01  -4.1701505e-02  -2.4120811e-01   4.9434069e-02   1.6123136e-01  -4.2677447e-02  -7.9627780e-03
   3.7904547e-03   1.3555506e-05   1.1702582e-02  -2.8501672e-02  -4.9356100e-02  -3.7549249e-02   2.3545852e-02  -9.1624668e-03  -1.1179807e-01  -1.0942715e-01   3.9161665e-02   1.3880053e-01  -1.0571618e-01  -5.1268609e-02  -1.3108776e-02  -1.5970312e-01   3.6006419e-02  -3.0046670e-01  -2.3649674e-01   2.6909774e-01  -1.0057183e-01  -4.6277625e-01  -2.0558380e-01
   6.3052962e-04   3.9284442e-04   7.2411922e-03   9.2984909e-03   1.4051520e-02   1.0636313e-03  -1.6762190e-02   3.2468259e-02  -9.3512609e-04   4.3963363e-02  -3.3313704e-02  -4.8939997e-02  -8.9971672e-04  -1.5519442e-02  -4.4962539e-02  -3.0730091e-02  -8.1318147e-03   6.4531739e-02   5.2278233e-02   8.2407662e-02  -4.9304978e-02  -8.2987626e-02   3.2929313e-02
  -9.3564645e-03  -9.5626091e-04  -8.7906409e-03   3.5464214e-02   3.1212349e-02  -4.9726770e-02  -2.8949776e-02   3.1099338e-02  -5.9110055e-02   8.9722694e-02  -4.0724907e-02   3.0963087e-02   1.4961860e-01   1.4740540e-01  -1.0366339e-01   1.4925334e-01  -1.2731179e-01   1.5594355e-01   2.0848560e-01  -1.0721494e-01  -3.4530826e-01   3.9422650e-01   2.9015437e-01
  -2.4317202e-03   9.7327291e-03  -3.0414323e-05   3.7403770e-02  -1.2091753e-03  -2.3358113e-03   2.9207431e-02   2.1206179e-03  -6.8218230e-06   2.6656678e-02   2.4218963e-02   6.7336264e-03   1.9980903e-01  -1.9414174e-01   1.2647322e-01   5.1186423e-02  -7.5707949e-02  -6.9563091e-02  -1.4007967e-01  -5.6438133e-02   5.8885848e-02   8.9673033e-02   2.1427077e-02
  -1.7195311e-03  -1.6895174e-03   1.6069977e-02   5.1618757e-03   1.7907312e-02  -3.2250876e-02  -2.0321439e-02  -8.6091971e-03   4.9969440e-03   2.0061297e-02   4.8488976e-02   3.0464492e-02  -5.7345868e-02   2.5338085e-02  -9.3539622e-02  -2.8488017e-01   8.4946698e-02  -6.1503899e-02   1.8001836e-01   2.3841513e-01  -1.8329796e-01  -2.1597330e-01   1.1984169e-02
   1.2112313e-03   6.7518118e-03   1.1788900e-02  -2.1581032e-02   3.6082373e-02  -1.5556714e-02  -2.8758032e-02  -2.3543045e-03  -3.4199527e-02  -7.5861992e-02   2.0550835e-01  -2.0619394e-02   6.0773757e-02   7.5266621e-02   7.4245894e-02  -3.5911647e-02  -5.8621953e-01  -2.5560685e-01  -2.0485330e-01  -4.7750294e-01   7.5423017e-01   1.8955833e-01  -8.9298192e-02
  -2.4370158e-03   1.3427838e-02  -2.1731344e-02   4.2712601e-04  -6.6945788e-05  -2.8751484e-02   3.9573046e-02  -6.4448306e-02  -8.2598543e-02  -1.1165759e-01  -1.4667726e-01   1.2675958e-01   1.2373666e-01   2.1287773e-01   1.1472139e-01  -2.1691941e-01   4.4956979e-01  -2.4386875e-01   1.7489552e-01  -9.6373501e-02  -8.2051598e-02   1.9148210e-01   5.4876029e-01
  -8.0361357e-03   6.1293638e-03   1.5550071e-02   1.4042443e-02   3.0093388e-02   3.9076791e-02   2.4888565e-02   1.0059213e-01   7.7969776e-02  -2.0146340e-02   1.3860363e-01   1.5756098e-01   1.2026076e-01   1.6377719e-01   2.4806429e-02   2.4160622e-02  -5.4174320e-01   2.9919792e-01  -9.3207729e-02   3.2486960e-01  -4.7348458e-01  -1.7407085e-01   1.3034171e-01
  -4.1124252e-03   2.2919827e-03  -1.9930726e-02   1.6308782e-02   4.2283287e-02  -2.2154450e-02   4.3031124e-02  -6.1386718e-02   1.3976407e-01  -5.4885592e-02  -5.6919714e-02   1.4968226e-01   3.0151458e-01   9.6940450e-03  -2.8344412e-01  -2.5437063e-02   7.2748951e-02  -1.6918664e-01  -6.9342749e-02   4.1245191e-01  -2.9592999e-01  -1.1019453e-01   8.4085964e-01
  -5.1010647e-03  -2.7058191e-03   9.6964759e-03   2.6938792e-03  -2.0938211e-02  -2.4810209e-02   3.9511123e-02  -4.5261931e-03   4.4897509e-03  -1.2036225e-01  -6.4850162e-03  -1.8874541e-03  -3.1567248e-02  -3.6862133e-02   2.6381599e-01  -1.2619027e-01  -1.1220644e-01  -9.6498597e-02  -3.5739366e-01   6.0644668e-02   3.0608062e-01  -1.7298544e-03  -9.7078730e-03
   3.6693458e-03  -2.3427826e-03   8.0524699e-03  -3.3183014e-02  -4.8197375e-02  -3.1488755e-02   6.7959629e-03  -9.1406774e-03  -1.1097363e-01  -1.0799683e-01   4.5022859e-02   1.0810074e-01  -9.6970878e-02  -4.7300059e-02   2.0472151e-02  -1.8173427e-01   5.6917854e-02  -2.8408857e-01  -1.8158788e-01   1.5369786e-01  -1.1445918e-01  -4.2768467e-01  -1.9856733e-01
  -2.1947029e-03  -2.2126473e-03   4.3086856e-03   2.1840047e-02   4.6506801e-02   1.5815737e-02  -2.0534295e-02   9.6785298e-03  -2.0883925e-02   3.9433756e-02  -1.8940567e-02  -6.3879768e-02  -4.2554222e-02  -2.7000585e-02  -4.0269830e-02  -2.6513418e-02  -3.6707779e-02   8.9895881e-02  -3.9929074e-02   1.1215256e-01  -4.4827522e-02  -1.1402643e-01   4.1631345e-03
  -9.1601101e-03  -6.6645563e-03  -1.8916079e-02   2.4569615e-02   3.1172537e-02  -3.6500193e-02  -4.7878110e-02   1.0525517e-02  -5.4440254e-02   6.4672702e-02   3.7148216e-03  -5.0441429e-02   1.4686139e-01   1.8292466e-01   3.9828158e-03   1.1512965e-01  -1.5032488e-01   1.6066732e-01   2.3512936e-01  -1.8304176e-01  -3.3256128e-01   3.3092068e-01   2.1609017e-01
  -3.0577764e-03   7.5268342e-03   3.6089601e-03   2.1012204e-02  -1.8659137e-03   2.1632954e-03   5.7311528e-02   1.8618804e-02   3.1516143e-02   8.9742805e-03  -2.0397513e-02   3.7499210e-02   5.5866431e-02  -1.6673095e-01   7.1824039e-02   1.1755160e-01  -7.3670664e-02  -7.2634812e-02  -1.6858250e-01  -1.2057337e-01   1.8511131e-01   2.5501717e-01   1.1583419e-02
  -7.4814662e-04  -2.6236388e-03   1.3782333e-02  -1.0878604e-02   1.8674383e-02  -2.1873531e-02  -1.4467618e-02  -1.6197553e-03   1.4064865e-02   1.1198315e-02   3.5306221e-02   5.5626123e-02  -1.2333913e-01   5.5887068e-02  -1.4869297e-01  -2.4779377e-01   1.0732792e-01  -4.9627577e-02   2.2486858e-01   2.0380980e-01  -1.3306472e-01  -1.2318266e-01  -4.2003862e-02
  -1.8019393e-04   7.8280627e-03   1.0458746e-02  -2.4497343e-02   4.7575169e-02  -2.2940854e-02  -2.0286790e-02   5.4540750e-03  -1.8788687e-02  -1.1095516e-01   2.1596934e-01  -1.3571199e-02   9.8672835e-02   1.2490523e-01   1.0322073e-01  -3.3813933e-02  -6.7166891e-01  -2.8578256e-01  -2.3001229e-01  -4.3425935e-01   8.1611384e-01   2.5258802e-01  -9.5657360e-02
  -2.5703155e-03   1.5815739e-02  -1.9897592e-02  -3.8624697e-03   6.8249822e-03  -1.4207672e-02   2.6002750e-02  -5.8189803e-02  -6.5215959e-02  -9.7085975e-02  -1.3061726e-01   1.1374221e-01   1.4556234e-01   1.7637793e-01   1.2549979e-01  -2.1622591e-01   3.8599468e-01  -2.5252647e-01   2.2672927e-01  -1.1897498e-01   1.5559980e-02   2.3213340e-01   5.0803476e-01
  -8.0140244e-03   7.8794092e-03   1.0528801e-02   1.0914523e-02   3.1635033e-02   3.2485102e-02   1.8623310e-02   8.9868686e-02   7.9493963e-02  -4.5797830e-02   1.3385691e-01   1.5755744e-01   1.6766125e-01   1.6647480e-01   3.3759915e-02  -1.6983577e-02  -5.7963994e-01   3.0538659e-01  -5.4595863e-02   2.8459688e-01  -4.4346631e-01  -1.4586042e-01   1.5092987e-01
  -3.8573818e-03   3.1168593e-03  -2.0756577e-02   1.3561270e-02   5.4103784e-02  -1.3097413e-02   4.0580146e-02  -6.7011723e-02   1.6643556e-01  -5.8171680e-02  -6.1267434e-02   1.4338694e-01   3.4007324e-01  -4.4430132e-04  -2.9953159e-01  -8.2765158e-02   6.3474959e-02  -2.0716670e-01  -9.4315862e-04   3.9890106e-01  -2.4313622e-01  -5.9185291e-02   8.8667863e-01
  -5.9553660e-03  -2.4705860e-03   7.6574506e-03   6.6960514e-03  -2.3551531e-02  -2.1748929e-02   5.3160617e-02  -3.7030011e-03   8.3892151e-03  -1.1803896e-01  -2.9483005e-02  -1.3516097e-02  -5.7527027e-03  -6.1932536e-02   3.1723341e-01  -1.0427260e-01  -1.1335316e-01  -1.3534206e-01  -4.3961978e-01   6.0463792e-02   4.3331702e-01   4.9696910e-02  -1.4114866e-02
   2.9530281e-03  -5.4056097e-03   2.5986506e-03  -3.8284698e-02  -4.4606376e-02  -2.9088982e-02  -1.3700150e-02  -4.2534169e-03  -1.0392555e-01  -9.4427376e-02   4.8640505e-02   7.0233628e-02  -7.1585797e-02  -1.1608458e-02   4.9078011e-02  -1.7498744e-01   6.5917717e-02  -2.4492739e-01  -8.1304823e-02  -1.0111620e-03  -1.4186174e-01  -3.3176703e-01  -1.6752261e-01
  -4.2798341e-03  -4.3861401e-03   1.8432380e-03   2.9842553e-02   7.0786632e-02   2.8122072e-02  -2.3775998e-02  -8.0472502e-03  -3.5819856e-02   3.1505182e-02  -3.0399929e-03  -7.6041241e-02  -7.6085236e-02  -3.1294550e-02  -3.0263704e-02  -1.8763226e-02  -7.2604247e-02   1.0020859e-01  -1.1900690e-01   1.1534571e-01  -4.0289217e-02  -1.2408088e-01  -3.5887474e-02
  -8.2158559e-03  -1.4789293e-02  -3.1616722e-02   5.1910441e-03   3.2231361e-02  -1.7761480e-02  -7.0142846e-02  -1.9612163e-02  -4.7412012e-02   1.5101681e-02   6.4007470e-02  -1.4738375e-01   1.0563819e-01   2.3151078e-01   1.4593203e-01   4.5442827e-02  -1.6118912e-01   1.5237326e-01   2.4002467e-01  -2.8303509e-01  -2.9119702e-01   2.1854221e-01   8.3037629e-02
