   9.8344482e-03  -2.8116772e-02
  -3.4673439e-02  -1.5045983e-02
  -1.1796017e-02   1.9128087e-02
  -3.4199463e-02  -3.8060366e-02
  -6.0855457e-03  -2.4061135e-02
   5.2779008e-03   1.0331245e-02
  -1.1799897e-02   3.3782605e-02
  -5.8228107e-02   1.3729640e-01
   8.6401832e-03  -9.4911293e-03
   3.0638808e-02   1.4728658e-02
   2.5642263e-03  -1.4548802e-02
  -3.4691632e-02  -1.6411992e-02
  -1.2182037e-02   1.6360145e-02
  -3.2114700e-03  -9.0320983e-04
  -1.3354653e-03  -2.1358223e-03
  -2.1391212e-04   1.0378979e-04
  -7.7428531e-03   2.3540341e-02
  -4.4632302e-02   1.0479967e-01
   7.5982385e-03  -2.6144213e-03
   2.3899039e-02   4.3998933e-03
  -2.2063944e-03  -4.1093048e-03
  -3.4817651e-02  -1.7682954e-02
  -1.2510991e-02   1.3894594e-02
   9.4666649e-03   1.4873529e-02
   2.2363551e-04   6.5812638e-03
  -3.4655177e-03  -3.2008298e-03
  -4.4831901e-03   1.3875705e-02
  -3.3316328e-02   7.4694224e-02
   6.0460759e-03   5.8170193e-04
   1.7293288e-02  -4.1432965e-03
  -4.9566363e-03   2.6767355e-03
  -3.4905855e-02  -1.8604264e-02
  -1.2933994e-02   1.1495512e-02
   1.0526002e-02   1.6447421e-02
  -7.1553799e-05   7.1354406e-03
  -4.7923249e-03  -2.4215579e-03
  -2.0919853e-03   5.8523792e-03
  -2.4289459e-02   4.8518859e-02
   4.2254850e-03   1.4951272e-03
   1.1082093e-02  -1.0302058e-02
  -6.1162206e-03   5.9323497e-03
  -3.4883783e-02  -1.9043894e-02
  -1.3511991e-02   9.0368542e-03
   5.7950508e-03   1.0524793e-02
  -1.1266455e-03   3.7438767e-03
  -4.7086980e-03   4.8442581e-08
  -6.1656122e-04   2.5738707e-04
  -1.7507840e-02   2.7408168e-02
   2.3270157e-03   1.3500337e-03
   5.4462752e-03  -1.3679387e-02
  -6.0596111e-03   6.2774956e-03
  -3.4734664e-02  -1.8980039e-02
  -1.4233689e-02   6.4922814e-03
  -3.3796444e-04   2.4789498e-03
  -2.2026131e-03  -5.7481946e-04
  -3.7805526e-03   2.3107401e-03
  -3.8728249e-05  -2.6050135e-03
  -1.2832658e-02   1.1842385e-02
   5.1369140e-04   9.9233656e-04
   5.2008950e-04  -1.4260451e-02
  -5.1172184e-03   4.6149142e-03
  -3.4473147e-02  -1.8471609e-02
  -1.5041025e-02   3.9090255e-03
  -5.1698268e-03  -4.1249341e-03
  -2.9121633e-03  -4.0246037e-03
  -2.5180721e-03   3.5379295e-03
  -2.5001675e-04  -2.9812055e-03
  -1.0005662e-02   1.5679058e-03
  -1.0620671e-03   8.1087132e-04
  -3.5802296e-03  -1.2477014e-02
  -3.5889823e-03   1.9112124e-03
  -3.4120923e-02  -1.7621864e-02
  -1.5856193e-02   1.3748892e-03
  -7.5836531e-03  -7.5824657e-03
  -3.1514252e-03  -5.8514091e-03
  -1.3075218e-03   3.4282440e-03
  -1.0535235e-03  -1.5802449e-03
  -8.6554508e-03  -4.2971626e-03
  -2.2564312e-03   7.9280889e-04
  -6.7436971e-03  -9.1375648e-03
  -1.7519031e-03  -9.8509933e-04
  -3.3688039e-02  -1.6544427e-02
  -1.6605104e-02  -1.0136232e-03
  -7.6764120e-03  -7.7427956e-03
  -3.0047816e-03  -6.0639088e-03
  -3.8142117e-04   2.2781135e-03
  -2.1929538e-03   6.3928655e-04
  -8.3357363e-03  -7.0096741e-03
  -2.9483954e-03   6.8256609e-04
  -8.8711490e-03  -5.2458120e-03
   1.4189049e-04  -3.4631908e-03
  -3.3163664e-02  -1.5338270e-02
  -1.7233906e-02  -3.1763658e-03
  -6.2444301e-03  -5.4782213e-03
  -2.6492411e-03  -5.1286939e-03
   1.7572642e-04   7.0182639e-04
  -3.4010920e-03   2.7399117e-03
  -8.5860728e-03  -7.8776439e-03
  -3.0648605e-03   1.8558669e-04
  -9.8972875e-03  -1.7633614e-03
   1.8748742e-03  -5.1977378e-03
  -3.2517045e-02  -1.4074683e-02
  -1.7717045e-02  -5.0646901e-03
  -4.2777126e-03  -2.0970807e-03
  -2.2735067e-03  -3.6888320e-03
   3.9220399e-04  -6.1726108e-04
  -4.4545940e-03   4.0502609e-03
  -8.9995314e-03  -7.9607569e-03
  -2.6069244e-03  -8.5106059e-04
  -9.8195313e-03   6.1166337e-04
   3.2766647e-03  -6.1299258e-03
  -3.1706540e-02  -1.2795758e-02
  -1.8057158e-02  -6.6660917e-03
  -2.5814572e-03   1.1543860e-03
  -2.0197583e-03  -2.3407982e-03
   3.5812717e-04  -1.1442483e-03
  -5.2194667e-03   4.3123786e-03
  -9.2796143e-03  -7.8787264e-03
  -1.6662184e-03  -2.3377092e-03
  -8.7223401e-03   1.5846928e-03
   4.2350580e-03  -6.3971368e-03
  -3.0692819e-02  -1.1521297e-02
  -1.8278876e-02  -8.0000110e-03
  -1.5836592e-03   3.4097539e-03
  -1.9534917e-03  -1.4941715e-03
   1.7803029e-04  -6.3465201e-04
  -5.6728498e-03   3.6927472e-03
  -9.2703242e-03  -7.7743430e-03
  -4.2149471e-04  -3.9481490e-03
  -6.7855982e-03   1.2849737e-03
   4.7021659e-03  -6.2347873e-03
  -2.9451936e-02  -1.0259724e-02
  -1.8419399e-02  -9.1077952e-03
  -1.3232700e-03   4.2972749e-03
  -2.0626303e-03  -1.3219096e-03
  -5.9854032e-05   8.2416290e-04
  -5.8929994e-03   2.6628380e-03
  -8.9502179e-03  -7.4281079e-03
   8.8887863e-04  -5.2236053e-03
  -4.2697368e-03   1.6571955e-04
   4.6930872e-03  -5.8772027e-03
  -2.7984868e-02  -9.0187183e-03
  -1.8518722e-02  -1.0040339e-02
  -1.5651783e-03   3.8899701e-03
  -2.2791650e-03  -1.7866647e-03
  -2.9483807e-04   2.8693213e-03
  -6.0194454e-03   1.7957495e-03
  -8.3923058e-03  -6.4742869e-03
   2.0147225e-03  -5.7333527e-03
  -1.4780203e-03  -1.1789812e-03
   4.2763171e-03  -5.4812620e-03
  -2.6321784e-02  -7.8125262e-03
  -1.8611604e-02  -1.0846573e-02
  -1.9698323e-03   2.5607924e-03
  -2.5112816e-03  -2.7113178e-03
  -4.8924707e-04   4.9892073e-03
  -6.1955870e-03   1.5494962e-03
  -7.7029673e-03  -4.6390539e-03
   2.7503681e-03  -5.2333182e-03
   1.2951493e-03  -2.2193113e-03
   3.5569065e-03  -5.0880118e-03
  -2.4520976e-02  -6.6647046e-03
  -1.8722420e-02  -1.1565024e-02
  -2.2527034e-03   8.1237437e-04
  -2.6743574e-03  -3.8590879e-03
  -6.1424442e-04   6.6795469e-03
  -6.5124548e-03   2.1076194e-03
  -6.9604036e-03  -1.9193538e-03
   2.9828334e-03  -3.7670684e-03
   3.8150771e-03  -2.6521387e-03
   2.6549325e-03  -4.6264593e-03
  -2.2663411e-02  -5.6065954e-03
  -1.8862998e-02  -1.2219350e-02
  -2.2873474e-03  -8.6846136e-04
  -2.7113885e-03  -4.9975219e-03
  -6.3729948e-04   7.5835676e-03
  -6.9722601e-03   3.3252404e-03
  -6.1732824e-03   1.3544539e-03
   2.7168438e-03  -1.6742785e-03
   5.9410887e-03  -2.4733015e-03
   1.6837991e-03  -3.9530177e-03
  -2.0844559e-02  -4.6729229e-03
  -1.9032862e-02  -1.2817563e-02
  -2.1276008e-03  -2.1054372e-03
  -2.5973734e-03  -5.9342016e-03
  -5.2309228e-04   7.5787763e-03
  -7.4832337e-03   4.7924546e-03
  -5.2723914e-03   4.5882475e-03
   2.0694988e-03   4.9776732e-04
   7.6342025e-03  -1.9432995e-03
   7.3429980e-04  -2.9119502e-03
  -1.9165515e-02  -3.8964202e-03
  -1.9220999e-02  -1.3354047e-02
  -1.9541561e-03  -2.6756994e-03
  -2.3343146e-03  -6.5287723e-03
  -2.5060191e-04   6.7918625e-03
  -7.8864370e-03   5.9889614e-03
  -4.1361339e-03   7.0985721e-03
   1.2368015e-03   2.1529394e-03
   8.9372373e-03  -1.4640687e-03
  -1.3026848e-04  -1.3982995e-03
  -1.7725158e-02  -3.3031701e-03
  -1.9408386e-02  -1.3813294e-02
  -1.9774146e-03  -2.5167890e-03
  -1.9492226e-03  -6.6944673e-03
   1.6154490e-04   5.5446462e-03
  -8.0056822e-03   6.4749574e-03
  -2.6404115e-03   8.3305874e-03
   4.4134643e-04   2.8256969e-03
   9.9343925e-03  -1.4122823e-03
  -8.6721274e-04   5.9336343e-04
  -1.6614398e-02  -2.9097202e-03
  -1.9570621e-02  -1.4174450e-02
  -2.3359606e-03  -1.7147457e-03
  -1.5011172e-03  -6.4001467e-03
   6.3648479e-04   4.2525270e-03
  -7.7054267e-03   6.0524506e-03
  -7.1701512e-04   8.0446138e-03
  -1.2504024e-04   2.3246205e-03
   1.0702469e-02  -1.9875740e-03
  -1.4429995e-03   2.9435624e-03
  -1.5913006e-02  -2.7224958e-03
  -1.9680281e-02  -1.4415878e-02
  -3.0202124e-03  -4.8003252e-04
  -1.0927493e-03  -5.6778836e-03
   1.0431606e-03   3.3091274e-03
  -6.9387903e-03   4.8421276e-03
   1.5983821e-03   6.4076104e-03
  -3.4797110e-04   7.9500638e-04
   1.1268668e-02  -3.1276059e-03
  -1.8271743e-03   5.4079159e-03
  -1.5689022e-02  -2.7395814e-03
  -1.9708918e-02  -1.4519175e-02
  -3.8429757e-03   8.8871864e-04
  -8.7559541e-04  -4.6348711e-03
   1.2283858e-03   2.9899669e-03
  -5.7700506e-03   3.2498628e-03
   4.1456879e-03   3.9579881e-03
  -2.1312139e-04  -1.3187248e-03
   1.1589054e-02  -4.5184023e-03
  -1.9977578e-03   7.6399326e-03
  -1.6000095e-02  -2.9544456e-03
  -1.9628921e-02  -1.4472211e-02
  -4.4716091e-03   2.0546351e-03
  -1.0315065e-03  -3.4592443e-03
   1.0670617e-03   3.3954878e-03
  -4.3637122e-03   1.8340171e-03
   6.6563140e-03   1.4539558e-03
   2.0103413e-04  -3.3988466e-03
   1.1556000e-02  -5.6960785e-03
  -1.9557629e-03   9.2330993e-03
  -1.6895582e-02  -3.3608005e-03
  -1.9415689e-02  -1.4271071e-02
  -4.5244662e-03   2.7055922e-03
  -1.7192654e-03  -2.4029973e-03
   5.1291507e-04   4.4383544e-03
  -2.9432350e-03   1.1176270e-03
   8.8025575e-03  -3.4635803e-04
   7.5573534e-04  -4.8299043e-03
   1.1033571e-02  -6.2055341e-03
  -1.7396389e-03   9.7794447e-03
  -1.8417954e-02  -3.9576121e-03
  -1.9050553e-02  -1.3920996e-02
  -3.7159196e-03   2.6242863e-03
  -2.9943147e-03  -1.7314621e-03
  -3.6635272e-04   5.8682724e-03
  -1.7327217e-03   1.4075801e-03
   1.0266029e-02  -9.0280309e-04
   1.2968190e-03  -5.1714930e-03
   9.9101857e-03  -5.7629993e-03
  -1.4295093e-03   8.9416477e-03
  -2.0602105e-02  -4.7533464e-03
  -1.8524566e-02  -1.3436447e-02
  -2.0139806e-03   1.7517481e-03
  -4.7296267e-03  -1.6448269e-03
  -1.3823444e-03   7.3210732e-03
  -9.0063506e-04   2.6799953e-03
   1.0804097e-02  -4.0424973e-05
   1.6964518e-03  -4.2781925e-03
   8.1516061e-03  -4.3686203e-03
  -1.1355258e-03   6.5337518e-03
  -2.3471641e-02  -5.7686989e-03
  -1.7842729e-02  -1.2840277e-02
   2.4280076e-04   2.2576953e-04
  -6.5712635e-03  -2.1930682e-03
  -2.2571077e-03   8.3784133e-03
  -5.2337701e-04   4.5690766e-03
   1.0294410e-02   2.0189179e-03
   1.8791953e-03  -2.3348477e-03
   5.8374713e-03  -2.3320065e-03
  -9.7003415e-04   2.6027228e-03
  -2.7032073e-02  -7.0372757e-03
  -1.7027851e-02  -1.2162028e-02
   2.3284274e-03  -1.6226689e-03
  -7.9577838e-03  -3.2159966e-03
  -2.6905781e-03   8.6326522e-03
  -5.7839064e-04   6.4640160e-03
   8.7463875e-03   4.7486206e-03
   1.8269880e-03   1.9733905e-04
   3.1712964e-03  -2.0125648e-04
  -1.0070501e-03  -2.4992656e-03
  -3.1262226e-02  -8.6039403e-03
  -1.6122630e-02  -1.1435418e-02
   3.2586412e-03  -3.3240930e-03
  -8.2231819e-03  -4.3407088e-03
  -2.4501679e-03   7.7606069e-03
  -9.6567270e-04   7.6850978e-03
   6.2806889e-03   7.5030680e-03
   1.5660043e-03   2.7012302e-03
   4.6368883e-04   1.3844162e-03
  -1.2369278e-03  -8.0644324e-03
  -3.6106456e-02  -1.0520877e-02
  -1.5188176e-02  -1.0695268e-02
   2.0801887e-03  -4.3737166e-03
  -6.7873512e-03  -5.0585427e-03
  -1.4634517e-03   5.6114486e-03
  -1.5478343e-03   7.6855678e-03
   3.0872105e-03   9.7383808e-03
   1.1448753e-03   4.5489505e-03
  -1.9035729e-03   1.8748488e-03
  -1.5287581e-03  -1.3015516e-02
  -4.1471212e-02  -1.2841853e-02
  -1.4297284e-02  -9.9742454e-03
  -1.7113810e-03  -4.3686088e-03
  -3.4149992e-03  -4.8847115e-03
   1.0973152e-04   2.3130181e-03
  -2.1935922e-03   6.2177606e-03
  -6.2256428e-04   1.1198949e-02
   6.1715820e-04   5.2248398e-03
  -3.5204569e-03   9.6803606e-04
  -1.6135112e-03  -1.5941617e-02
  -4.7229476e-02  -1.5615646e-02
  -1.3521434e-02  -9.2998257e-03
  -7.7047171e-03  -3.1548822e-03
   1.4952431e-03  -3.5853855e-03
   1.8532679e-03  -1.6016649e-03
  -2.8078278e-03   3.4135498e-03
  -4.6513618e-03   1.2011975e-02
   4.0278120e-05   4.3888229e-03
  -3.9846249e-03  -1.2988038e-03
  -1.0986503e-03  -1.5193071e-02
  -5.3235426e-02  -1.8879857e-02
  -1.2911753e-02  -8.6917592e-03
  -1.4177054e-02  -9.5904489e-04
   6.6421120e-03  -1.4399202e-03
   3.1400220e-03  -5.0560400e-03
  -3.3345173e-03  -2.4357957e-04
  -8.8256899e-03   1.2661817e-02
  -5.0209888e-04   1.8641349e-03
  -2.9184267e-03  -4.5516666e-03
   4.7799225e-04  -9.0396583e-03
  -5.9349099e-02  -2.2656012e-02
  -1.2475719e-02  -8.1603222e-03
  -1.7905416e-02   1.5195767e-03
   9.6395375e-03   5.2023822e-04
   3.2492371e-03  -6.3076270e-03
  -3.7280582e-03  -4.0442109e-03
  -1.2973715e-02   1.3853720e-02
  -8.5566560e-04  -2.4403538e-03
   3.8032849e-05  -8.1723988e-03
   3.5542184e-03   4.1128612e-03
  -6.5467435e-02  -2.6945991e-02
  -1.2153565e-02  -7.7061921e-03
  -1.4293317e-02   3.0742109e-03
   7.0001557e-03   3.8515570e-04
   1.5361235e-03  -2.8914444e-03
  -3.9011941e-03  -7.2371994e-03
  -1.6878078e-02   1.6310808e-02
  -7.3952633e-04  -8.6403626e-03
   5.2526292e-03  -1.1451273e-02
   8.4176375e-03   2.5466082e-02
  -7.1554553e-02  -3.1728380e-02
  -1.1800275e-02  -7.3237601e-03
   2.1488932e-03   2.0289732e-03
  -5.6344855e-03  -4.5367343e-03
  -2.3882860e-03   8.3053226e-03
  -3.6693844e-03  -9.2185764e-03
  -2.0220904e-02   2.0568221e-02
   3.0351887e-04  -1.6975242e-02
   1.3131513e-02  -1.3752444e-02
   1.5063813e-02   5.5564149e-02
  -7.7661416e-02  -3.6951728e-02
  -1.1180296e-02  -7.0106300e-03
   3.7031817e-02  -3.6360420e-03
  -3.2941138e-02  -1.7286297e-02
  -8.5374672e-03   3.0764344e-02
  -2.7181269e-03  -9.6754720e-03
  -2.2543205e-02   2.6827640e-02
   2.9304907e-03  -2.7856285e-02
   2.4135090e-02  -1.4644080e-02
